摘要
[样品信息]
类型:,测定数据
数据集名:,RawData
样品名称:,3
样品ID:,3
选项
分析者
创建日期和时间:,2026/04/10 14:05:24
注释
参数文件名:,123.vspm
报告文件名
[软件信息]
软件名称:,LabSolutions UV-Vis
版本:,1.12
[仪器信息]
仪器名称:,UV-2700i
仪器类型:,UV-2700 系列
型号(S/N):,UV-2700i (A12606030313)

测定参数
[测定]
开始(nm):,700 nm
结束(nm):,350 nm
数据间隔(nm):,1.0
扫描速度:,快速
光度值类型:,吸收值
[附件]
附件:,无
[高级设置]
狭缝宽度:,2.0
检测器单元:,直接
光源转换波长:,323
S/R切换:,标准
阶梯校正:,ON
[重复]
重复测定:,OFF
[后处理]
光谱转换:,OFF
数据处理表:,OFF
打印:,OFF

波长(nm),吸收值
350.0,0.635176
351.0,0.604930
352.0,0.579046
353.0,0.555493
354.0,0.533160
355.0,0.509956
356.0,0.489161
357.0,0.471260
358.0,0.450227
359.0,0.433601
360.0,0.416483
361.0,0.401228
362.0,0.386131
363.0,0.373212
364.0,0.360348
365.0,0.348136
366.0,0.335243
367.0,0.325388
368.0,0.314477
369.0,0.306585
370.0,0.296190
371.0,0.287465
372.0,0.278642
373.0,0.271015
374.0,0.262779
375.0,0.254117
376.0,0.247396
377.0,0.240206
378.0,0.232397
379.0,0.226370
380.0,0.218727
381.0,0.212488
382.0,0.205253
383.0,0.199020
384.0,0.191929
385.0,0.185448
386.0,0.179670
387.0,0.172982
388.0,0.166819
389.0,0.161912
390.0,0.155375
391.0,0.149171
392.0,0.142876
393.0,0.137616
394.0,0.132254
395.0,0.126627
396.0,0.121199
397.0,0.116698
398.0,0.111836
399.0,0.106727
400.0,0.102544
401.0,0.097671
402.0,0.093223
403.0,0.089798
404.0,0.085270
405.0,0.081575
406.0,0.077537
407.0,0.074677
408.0,0.071142
409.0,0.068226
410.0,0.065836
411.0,0.062929
412.0,0.060958
413.0,0.058582
414.0,0.056709
415.0,0.054439
416.0,0.052813
417.0,0.051442
418.0,0.051113
419.0,0.049274
420.0,0.048609
421.0,0.046845
422.0,0.047381
423.0,0.046442
424.0,0.046225
425.0,0.045774
426.0,0.045698
427.0,0.046448
428.0,0.046104
429.0,0.046678
430.0,0.046546
431.0,0.047877
432.0,0.047705
433.0,0.048879
434.0,0.049682
435.0,0.051008
436.0,0.051131
437.0,0.053260
438.0,0.054415
439.0,0.056077
440.0,0.056846
441.0,0.057808
442.0,0.059059
443.0,0.060769
444.0,0.062498
445.0,0.063496
446.0,0.065181
447.0,0.066629
448.0,0.068073
449.0,0.069100
450.0,0.070840
451.0,0.072409
452.0,0.074237
453.0,0.075901
454.0,0.077558
455.0,0.078677
456.0,0.080474
457.0,0.081936
458.0,0.083097
459.0,0.084332
460.0,0.085796
461.0,0.087400
462.0,0.088752
463.0,0.090482
464.0,0.091606
465.0,0.093463
466.0,0.094026
467.0,0.095575
468.0,0.097099
469.0,0.098945
470.0,0.099482
471.0,0.100619
472.0,0.101900
473.0,0.103877
474.0,0.104378
475.0,0.105645
476.0,0.106680
477.0,0.108090
478.0,0.109036
479.0,0.110165
480.0,0.111176
481.0,0.112205
482.0,0.113626
483.0,0.115046
484.0,0.115899
485.0,0.117239
486.0,0.118470
487.0,0.119776
488.0,0.120856
489.0,0.121774
490.0,0.123173
491.0,0.124712
492.0,0.126012
493.0,0.127256
494.0,0.128177
495.0,0.130457
496.0,0.131400
497.0,0.132807
498.0,0.134210
499.0,0.136440
500.0,0.137703
501.0,0.138456
502.0,0.140654
503.0,0.142085
504.0,0.143429
505.0,0.145116
506.0,0.146647
507.0,0.148802
508.0,0.150428
509.0,0.152632
510.0,0.154438
511.0,0.156099
512.0,0.157863
513.0,0.160021
514.0,0.161316
515.0,0.163468
516.0,0.165412
517.0,0.166821
518.0,0.168752
519.0,0.170243
520.0,0.172017
521.0,0.173385
522.0,0.175664
523.0,0.176624
524.0,0.178857
525.0,0.179899
526.0,0.181778
527.0,0.183267
528.0,0.184293
529.0,0.185666
530.0,0.187178
531.0,0.188713
532.0,0.189273
533.0,0.189976
534.0,0.191236
535.0,0.191756
536.0,0.192609
537.0,0.193429
538.0,0.194480
539.0,0.194268
540.0,0.194212
541.0,0.195005
542.0,0.194925
543.0,0.195148
544.0,0.194978
545.0,0.194567
546.0,0.194151
547.0,0.193925
548.0,0.192677
549.0,0.192021
550.0,0.191139
551.0,0.189885
552.0,0.188266
553.0,0.187452
554.0,0.185965
555.0,0.184912
556.0,0.182981
557.0,0.180866
558.0,0.179780
559.0,0.177789
560.0,0.175508
561.0,0.174051
562.0,0.171516
563.0,0.169181
564.0,0.167392
565.0,0.164561
566.0,0.162376
567.0,0.160041
568.0,0.157123
569.0,0.153919
570.0,0.151403
571.0,0.148879
572.0,0.146285
573.0,0.142985
574.0,0.139923
575.0,0.137372
576.0,0.134160
577.0,0.131063
578.0,0.128082
579.0,0.125253
580.0,0.122230
581.0,0.120020
582.0,0.116384
583.0,0.113523
584.0,0.110564
585.0,0.107749
586.0,0.104959
587.0,0.101992
588.0,0.098937
589.0,0.096443
590.0,0.093521
591.0,0.091178
592.0,0.088997
593.0,0.085136
594.0,0.083452
595.0,0.080582
596.0,0.077962
597.0,0.075117
598.0,0.073222
599.0,0.071086
600.0,0.068339
601.0,0.065761
602.0,0.063716
603.0,0.061094
604.0,0.059321
605.0,0.057962
606.0,0.055924
607.0,0.053722
608.0,0.052416
609.0,0.050063
610.0,0.048550
611.0,0.046875
612.0,0.045693
613.0,0.043495
614.0,0.041996
615.0,0.040750
616.0,0.039601
617.0,0.038280
618.0,0.036369
619.0,0.035288
620.0,0.034775
621.0,0.033155
622.0,0.031868
623.0,0.031017
624.0,0.030047
625.0,0.028612
626.0,0.028289
627.0,0.027661
628.0,0.026500
629.0,0.025577
630.0,0.025079
631.0,0.023973
632.0,0.023241
633.0,0.023237
634.0,0.022414
635.0,0.021299
636.0,0.020569
637.0,0.020179
638.0,0.019904
639.0,0.019303
640.0,0.018761
641.0,0.018264
642.0,0.017347
643.0,0.017475
644.0,0.016855
645.0,0.016475
646.0,0.016584
647.0,0.015945
648.0,0.015614
649.0,0.015525
650.0,0.014825
651.0,0.014715
652.0,0.014756
653.0,0.014176
654.0,0.015199
655.0,0.014841
656.0,0.014137
657.0,0.013859
658.0,0.013486
659.0,0.013454
660.0,0.012610
661.0,0.012913
662.0,0.012103
663.0,0.012070
664.0,0.012049
665.0,0.011753
666.0,0.011286
667.0,0.011057
668.0,0.011136
669.0,0.010820
670.0,0.010816
671.0,0.011368
672.0,0.011085
673.0,0.010385
674.0,0.010426
675.0,0.010383
676.0,0.010358
677.0,0.009977
678.0,0.009800
679.0,0.009970
680.0,0.009706
681.0,0.009581
682.0,0.008764
683.0,0.009802
684.0,0.009112
685.0,0.009626
686.0,0.008965
687.0,0.008914
688.0,0.008999
689.0,0.009419
690.0,0.009225
691.0,0.008882
692.0,0.008812
693.0,0.009422
694.0,0.008915
695.0,0.008492
696.0,0.008206
697.0,0.008943
698.0,0.008486
699.0,0.008979
700.0,0.008440
