VAMAS Surface Chemical Analysis Standard Data Transfer Format 1988 May 4




1
Experiment Type: XPS
NORM
REGULAR
6
0
0
0
0
0
6


2024
3
10
15
16
2
0
0
XPS

1486.7
300.0
1E37
1E37
1E37
1E37
FAT
50.00
5.0
2.800
1E37
2400
1200
1E37
1E37


-1
kinetic energy
eV
86.7
0.5
1
count rate
c/s
pulse counting
0.200
1
70E-9
1E37
1E37
1E37
0
2801
0
2152
379
360
377
369
367
335
327
353
372
346
342
318
342
337
352
353
338
333
330
317
331
325
318
321
318
335
334
321
314
311
328
313
313
320
320
307
274
305
288
287
275
279
281
300
301
308
269
265
280
298
281
268
275
266
285
276
290
290
259
287
256
270
261
245
243
258
242
263
273
268
237
255
259
255
255
255
250
248
242
249
248
278
228
226
238
236
228
259
245
227
229
240
221
234
215
243
234
238
252
222
211
241
239
259
237
219
227
249
245
214
220
233
225
209
237
222
195
181
222
228
227
240
223
213
213
221
231
220
259
245
220
224
229
217
231
240
223
231
248
226
228
233
195
208
221
212
213
216
215
236
226
198
210
210
198
224
226
229
195
185
190
193
242
219
202
204
196
215
210
215
191
225
217
212
217
191
203
196
192
222
220
191
204
186
198
202
212
222
205
212
206
223
199
218
204
226
206
225
204
211
204
190
214
228
200
187
181
214
233
193
217
207
197
205
217
219
203
191
223
208
191
188
201
220
197
207
205
205
211
202
214
213
217
215
192
202
205
210
223
238
198
197
219
218
225
210
208
195
218
190
205
196
220
222
219
197
203
200
217
199
210
222
228
234
208
193
203
247
214
216
224
212
214
216
198
216
217
209
196
196
198
204
213
198
204
188
214
239
210
225
235
194
202
229
223
225
212
210
207
206
227
222
205
239
210
233
208
205
208
235
233
212
231
221
236
229
212
236
205
207
237
223
222
219
226
226
232
218
225
244
217
242
238
193
236
250
224
207
249
222
225
225
229
237
213
210
233
237
241
251
215
249
276
253
232
230
211
235
228
238
232
240
227
224
241
218
206
218
222
231
222
237
247
269
233
244
245
226
231
233
227
225
236
247
249
245
250
232
240
244
235
219
241
221
215
221
262
226
242
245
256
240
248
231
241
249
232
224
242
236
258
237
262
262
247
255
254
258
249
250
244
232
232
231
261
243
229
260
264
256
261
255
263
242
270
250
247
249
262
277
251
235
248
236
271
253
274
253
243
283
254
250
260
262
244
277
243
271
275
245
261
284
285
254
259
253
281
276
268
269
282
278
248
254
260
265
254
270
273
283
287
292
235
249
270
284
279
279
266
282
261
276
257
276
260
253
270
273
273
256
287
286
277
251
282
296
282
268
264
275
295
291
291
282
292
288
272
277
274
241
265
271
269
274
269
293
269
285
287
267
271
298
284
282
293
268
262
278
275
284
276
245
253
285
276
306
295
283
286
292
252
282
271
284
288
269
284
310
306
308
289
278
297
317
288
302
314
325
302
297
315
315
275
299
313
301
311
285
286
300
271
275
277
304
293
310
276
300
280
299
293
277
298
307
288
312
285
293
299
325
291
302
310
308
296
307
289
292
289
278
324
292
278
293
290
295
305
310
311
314
327
284
306
302
300
329
320
319
339
323
308
294
322
292
304
298
300
308
329
319
336
290
299
287
302
288
323
301
286
308
304
312
319
353
365
348
369
346
342
302
314
314
320
310
308
315
343
312
312
311
306
323
334
304
320
299
300
321
334
327
313
312
318
304
328
335
332
318
324
286
285
309
305
319
336
315
292
330
312
349
327
338
306
320
319
329
318
340
351
343
324
333
330
326
308
306
337
327
338
322
339
348
351
380
370
331
317
301
316
331
343
329
343
331
345
353
346
369
348
339
348
332
329
363
345
340
365
357
334
347
346
362
384
368
404
414
369
355
366
369
384
365
348
363
373
373
361
350
363
339
366
364
352
356
329
325
345
395
379
367
355
342
369
370
362
369
387
369
369
372
393
396
354
383
390
414
386
404
387
413
378
385
350
370
340
347
337
370
385
386
353
358
384
316
315
321
325
308
318
333
344
349
317
337
359
343
334
369
349
394
376
406
454
427
443
444
495
493
530
505
510
538
483
423
422
381
367
350
329
314
326
317
331
286
315
292
274
287
255
224
255
260
235
225
225
205
222
232
207
203
211
192
207
210
218
204
206
217
221
216
232
211
222
211
202
209
234
204
212
231
245
231
208
214
211
215
211
196
217
208
219
201
215
210
188
210
217
225
201
206
221
229
227
223
233
216
230
228
200
213
205
199
189
219
220
215
221
214
183
197
212
212
230
217
225
216
197
178
211
201
207
218
207
176
195
204
204
207
202
229
212
197
213
212
205
232
226
229
208
215
219
221
227
207
201
210
214
223
219
206
192
185
230
207
224
185
218
220
195
200
225
225
220
234
207
222
216
222
228
216
222
210
220
209
227
197
224
237
235
249
239
245
234
241
223
257
258
223
236
230
234
239
255
244
215
249
224
240
272
235
223
254
250
256
259
266
210
237
223
251
226
230
232
242
242
234
230
233
262
250
220
241
237
220
233
240
245
249
246
250
234
244
256
251
250
241
232
239
244
237
252
257
209
224
225
233
252
231
225
211
251
224
220
217
228
211
208
201
221
221
228
235
241
251
248
243
250
237
230
254
273
286
303
297
263
224
228
207
208
215
213
202
188
191
206
228
209
191
211
198
202
200
202
198
193
189
205
179
209
191
216
209
203
210
209
194
211
233
222
201
208
197
182
208
224
213
201
184
196
218
212
208
212
228
221
203
195
214
190
201
188
206
225
204
197
187
202
219
191
193
190
200
210
202
186
220
193
195
202
197
195
220
201
186
191
195
184
194
190
197
174
224
196
216
184
225
212
207
177
176
203
185
201
195
200
203
204
194
199
204
204
202
220
218
175
224
221
190
189
179
185
200
202
186
195
192
200
211
215
205
196
185
227
187
197
181
226
224
206
202
215
228
192
209
216
190
192
204
191
211
196
196
211
183
213
204
211
212
211
205
193
200
196
195
204
224
192
190
176
189
221
199
211
208
195
208
190
199
211
198
197
186
194
201
190
177
190
172
173
209
211
214
195
202
197
187
189
203
191
197
205
225
199
199
210
215
215
202
203
196
184
191
210
179
187
173
203
199
181
188
198
177
174
207
191
196
195
190
202
203
215
207
191
192
209
190
188
201
208
212
189
209
202
194
218
191
185
202
205
193
219
177
208
194
193
207
204
224
195
196
180
206
197
180
207
206
206
215
209
209
190
212
200
210
208
215
189
196
206
207
202
190
189
195
183
204
207
202
214
210
191
190
207
220
198
185
222
201
189
207
198
191
170
192
167
180
204
212
211
189
185
183
206
191
187
199
203
192
204
185
203
195
216
221
198
197
199
176
199
194
197
202
212
227
197
189
193
210
198
189
204
197
203
213
196
198
208
211
200
203
202
196
201
197
210
195
214
195
197
212
195
215
230
205
192
204
201
198
209
205
221
201
198
211
209
222
209
181
219
211
201
204
189
200
200
209
211
204
198
210
193
188
220
198
206
197
214
228
215
182
220
215
204
200
187
201
205
218
208
208
231
208
232
206
215
205
232
235
217
235
216
232
216
211
234
214
210
214
228
231
208
245
226
208
211
197
212
219
226
193
225
233
218
219
233
215
226
206
221
213
210
222
227
208
218
201
232
229
203
210
211
212
216
211
209
215
222
218
206
243
222
220
217
235
222
218
215
213
217
212
245
249
218
235
236
212
194
236
245
219
215
239
223
211
224
214
211
233
219
229
239
224
230
241
236
226
209
224
207
221
227
247
253
248
226
214
221
231
231
209
223
230
228
231
237
249
254
244
231
242
243
255
236
231
231
255
235
227
271
259
222
232
257
240
230
237
228
239
234
254
248
265
259
247
249
228
248
236
231
228
203
225
232
242
236
231
247
243
214
233
232
231
225
231
214
224
232
221
241
230
243
257
252
252
257
255
242
254
253
238
263
266
280
279
289
276
284
297
285
296
311
330
324
300
281
296
284
257
226
231
249
209
220
212
180
199
214
185
190
178
177
184
153
143
144
120
95
82
67
70
60
53
72
58
63
73
71
62
85
134
210
421
764
1228
1818
2152
1920
1344
758
319
168
114
92
88
71
56
69
57
63
62
61
50
53
45
45
48
53
46
57
50
55
57
60
54
44
55
57
56
47
50
48
51
50
55
63
57
47
52
47
60
57
49
57
52
52
46
47
58
48
47
56
67
51
59
58
48
47
66
53
56
55
60
58
61
75
60
62
60
67
56
51
46
49
47
40
46
39
40
39
51
38
47
52
42
43
51
44
52
47
36
55
47
41
60
47
44
38
47
47
45
45
49
56
46
44
50
46
49
47
42
43
49
59
60
49
49
46
40
36
49
41
47
47
52
39
48
51
48
35
42
44
47
49
45
35
44
54
43
44
54
53
64
47
49
40
46
43
45
47
45
42
47
47
45
40
44
45
52
45
44
55
46
53
53
53
47
53
41
47
46
47
46
44
50
44
50
50
60
52
47
54
69
49
39
54
52
38
48
53
44
55
44
40
41
58
43
56
46
49
48
41
35
48
50
48
45
44
49
54
50
50
48
49
37
45
50
48
53
48
49
47
53
54
47
48
48
46
37
67
55
53
45
53
43
50
43
36
44
48
65
51
58
61
48
56
38
53
44
54
38
49
57
54
51
48
40
47
43
30
48
59
50
49
49
53
50
39
40
49
53
39
45
38
42
47
54
48
47
48
38
36
44
44
47
47
44
45
59
56
52
51
40
45
52
43
38
36
36
35
46
44
50
50
58
46
50
65
59
50
52
48
47
49
53
59
44
57
51
52
48
55
42
52
43
53
48
48
53
49
42
46
50
48
37
58
51
52
43
51
44
50
57
57
58
46
49
56
51
52
39
41
52
55
54
51
45
42
43
38
44
34
39
40
49
46
49
44
56
62
52
38
42
42
46
59
52
52
63
48
68
42
38
54
43
54
51
31
28
49
37
47
44
53
47
48
41
44
51
39
47
47
57
54
53
58
50
41
41
49
56
48
45
56
50
44
53
53
52
60
54
42
49
44
44
45
46
51
54
48
35
46
60
54
60
49
52
56
44
54
48
43
53
57
42
31
45
45
40
52
58
49
48
38
47
45
51
60
43
47
58
59
52
48
52
55
42
43
54
52
51
56
68
58
54
50
43
53
63
58
47
51
52
49
41
42
48
55
52
42
43
47
58
49
53
47
43
48
55
54
37
54
47
55
58
57
50
47
42
37
40
57
42
53
44
44
52
49
52
52
75
57
45
44
47
45
47
46
35
48
55
46
54
51
54
44
44
38
43
51
41
43
43
43
44
50
64
62
51
40
46
49
50
45
50
53
51
54
44
54
49
54
51
49
52
47
56
45
41
44
59
56
58
49
50
42
47
61
44
47
49
45
51
47
56
65
48
41
46
45
51
41
59
38
50
49
56
42
43
40
47
60
67
58
58
62
47
46
49
46
47
43
45
56
62
55
57
63
47
61
59
55
57
43
61
58
47
43
54
57
49
51
57
54
45
48
64
47
55
57
51
52
52
66
55
58
50
53
45
44
52
58
47
55
53
62
64
48
50
52
61
61
61
71
50
64
61
59
54
54
59
50
51
57
53
57
66
62
62
49
60
57
58
57
54
71
61
56
55
59
51
56
52
54
62
52
58
51
77
65
67
73
68
60
57
69
63
59
73
73
73
61
76
69
64
68
68
71
76
67
70
51
59
62
62
61
57
45
50
47
42
39
43
41
42
38
48
40
33
43
38
33
42
42
33
50
63
75
89
127
186
248
284
336
300
231
174
108
87
71
56
53
54
53
40
32
41
39
41
45
43
31
40
38
53
46
27
38
46
36
38
32
31
36
42
34
37
35
36
27
28
36
29
34
28
28
34
43
29
33
37
37
35
34
44
46
34
42
47
53
49
54
51
51
42
36
43
40
46
38
39
38
43
37
28
33
37
31
33
21
28
25
25
27
17
19
16
10
13
9
13
11
12
15
11
8
6
9
10
9
28
51
89
226
307
344
260
193
85
41
19
8
12
16
10
12
12
10
6
13
9
9
10
13
9
16
14
12
11
12
12
11
9
6
9
10
14
5
8
11
9
9
8
7
11
11
14
12
19
15
9
5
7
14
15
8
16
13
15
15
8
9
11
9
9
17
12
12
11
7
9
14
11
13
11
15
11
13
8
12
17
18
16
8
15
17
15
19
11
12
12
11
13
10
9
14
10
14
9
13
14
12
11
8
13
9
17
18
13
16
15
13
13
11
11
7
14
11
14
12
13
8
7
9
12
10
12
11
11
12
9
6
10
15
8
9
7
11
12
10
5
10
10
5
14
9
8
15
14
13
7
10
8
6
9
18
16
22
36
48
43
50
57
54
29
22
17
8
8
5
2
3
2
1
3
3
2
3
3
4
7
8
7
6
10
12
4
6
9
9
12
6
6
11
8
14
13
17
13
7
4
3
2
0
1
0
0
0
1
0
0
0


2024
3
10
15
16
2
0
1
O
XPS

1486.7
300.0
1E37
1E37
1E37
1E37
FAT
50.00
5.0
2.800
1E37
2400
1200
1E37
1E37


-1
kinetic energy
eV
941.7
0.100
1
count rate
c/s
pulse counting
0.200
2
70E-9
1E37
1E37
1E37
0
201
101
4308
365
320
330
331
333
306
309
325
321
288
301
304
315
297
290
298
279
266
244
257
286
252
234
241
243
226
206
202
191
180
201
200
175
161
165
170
172
160
146
143
138
139
138
127
135
134
140
142
123
134
129
130
131
116
107
124
126
135
119
111
120
122
127
133
121
126
132
124
132
133
137
136
124
124
116
110
115
122
125
140
138
135
130
129
150
150
149
147
152
164
184
195
212
215
218
237
272
287
330
360
432
492
545
618
701
801
889
1010
1155
1275
1467
1664
1868
2070
2379
2562
2782
3034
3314
3474
3714
3881
4065
4189
4251
4308
4307
4290
4294
4131
3979
3822
3574
3271
3005
2789
2471
2154
1899
1684
1392
1197
1013
880
780
645
548
481
431
388
339
309
288
261
220
227
217
205
200
192
182
161
173
146
134
143
158
127
129
139
136
128
125
116
119
129
117
124
115
110
115
125
122
121
124
125
112
120
108
118
132
137
128
111
101
113
104
101
108
113
118


2024
3
10
15
16
2
0
1
c
XPS

1486.7
300.0
1E37
1E37
1E37
1E37
FAT
50.00
5.0
2.800
1E37
2400
1200
1E37
1E37


-1
kinetic energy
eV
1211.7
-0.100
1
count rate
c/s
pulse counting
0.200
10
70E-9
1E37
1E37
1E37
0
201
445
621
557
539
551
535
546
571
567
551
564
591
585
602
619
621
602
606
595
575
536
548
566
552
579
556
549
569
577
514
525
545
525
509
541
528
507
502
513
489
462
482
495
497
480
476
445
450
507
535
527
505
507
490
513
506
487
468
466
475
478
483
479
468
493
472
480
468
462
485
496
485
515
485
526
481
472
475
508
484
485
493
539
504
482
502
522
517
527
484
492
469
485
498
508
497
508
482
508
501
524
494
468
467
469
482
521
545
516
509
496
521
522
492
482
483
511
508
516
512
510
511
512
511
504
506
491
499
479
472
486
490
506
497
503
503
509
518
467
465
493
503
507
457
466
502
486
487
462
484
475
502
518
509
488
467
478
502
504
525
493
481
510
513
481
497
467
490
516
498
491
515
470
486
482
470
488
483
506
483
473
464
494
497
495
514
507
508
479
475
490
486
528
516
496
472
463
490
509
512
470
475
492


2024
3
10
15
16
2
0
1
Si
XPS

1486.7
300.0
1E37
1E37
1E37
1E37
FAT
50.00
5.0
2.800
1E37
2400
1200
1E37
1E37


-1
kinetic energy
eV
1376.7
0.100
1
count rate
c/s
pulse counting
0.200
5
70E-9
1E37
1E37
1E37
0
201
42
1659
57
62
64
63
69
76
57
72
56
60
60
61
59
60
66
55
52
52
54
52
54
54
54
59
52
54
70
58
56
68
57
50
51
48
58
55
67
73
79
71
84
67
85
109
125
143
157
169
208
231
275
334
360
427
506
546
601
714
820
888
1018
1185
1248
1290
1386
1458
1485
1537
1596
1624
1612
1641
1659
1611
1495
1421
1360
1268
1151
1038
970
876
744
650
598
489
399
356
336
285
212
180
159
120
108
104
93
92
80
66
68
67
59
49
65
61
56
62
66
43
48
58
50
49
50
47
58
57
52
57
54
55
56
61
54
52
51
54
59
58
55
52
43
50
60
57
63
66
62
62
44
46
57
59
64
57
46
62
53
42
69
54
51
56
55
48
61
51
59
64
59
56
56
51
48
51
47
53
56
58
51
54
58
54
47
50
61
51
44
56
60
60
60
56
60
57
55
50
53
57
54
58
48
52
65
59
53
51
49
50
49


2024
3
10
15
16
2
0
1
Ni
XPS

1486.7
300.0
1E37
1E37
1E37
1E37
FAT
50.00
5.0
2.800
1E37
2400
1200
1E37
1E37


-1
kinetic energy
eV
596.7
0.100
1
count rate
c/s
pulse counting
0.200
40
70E-9
1E37
1E37
1E37
0
501
8073
12696
9746
9867
9885
9793
9793
9788
9563
9734
9879
9823
9695
9813
9928
9772
9664
9815
9757
9762
9713
9837
9752
9933
9689
9702
9817
9680
9636
9782
9742
9850
9870
9834
9822
9820
9773
9697
9653
9876
9820
9755
9862
9827
9861
9728
9774
9726
9746
9815
9812
9781
9763
9791
9677
9786
9682
9870
9798
9769
9743
9731
9532
9605
9618
9682
9766
9782
9777
9818
9869
9827
9748
9766
9813
9708
9810
9847
9749
9696
9721
9821
9544
9563
9624
9693
9664
9753
9801
9678
9755
9843
9808
9779
9752
9694
9722
9813
9747
9704
9688
9773
9764
9718
9840
9704
9774
9809
9842
9905
9775
9684
9793
9899
9857
9693
9740
9826
9945
9880
9862
9800
9828
10006
9971
10124
10097
9987
10032
9936
9914
9964
9965
10159
9992
10064
9943
9874
9910
10014
10024
10129
10200
10013
10098
10044
10044
10064
10118
10131
10072
9994
9961
10092
10156
10037
10032
10129
10085
10117
10012
9980
10071
9951
10016
9928
10110
10227
10192
10178
10179
10246
10196
10236
10299
10265
10486
10552
10521
10677
10819
10746
10834
10943
10839
10924
11082
11056
10971
11110
11095
11176
11173
11100
11030
11090
10785
10738
10553
10477
10377
10278
10217
10047
9949
10002
9897
9741
9695
9734
9742
9702
9749
9773
9606
9563
9517
9469
9374
9418
9331
9290
9215
9232
9428
9458
9227
9182
9439
9213
9163
9284
9207
9297
9251
9267
9292
9324
9140
9237
9214
9188
9229
9222
9232
9107
9112
9301
9332
9347
9138
9212
9101
8974
9029
9104
9187
9145
9244
9214
9133
9067
9017
9048
9124
9129
9284
9226
9193
9120
9127
9119
9326
9236
9186
9145
9172
9257
9212
9288
9157
9359
9322
9347
9362
9315
9333
9453
9475
9332
9597
9582
9606
9516
9699
9659
9643
9679
9766
9548
9625
9613
9676
9617
9681
9633
9657
9661
9603
9566
9703
9691
9580
9560
9418
9517
9457
9533
9543
9535
9580
9243
9477
9591
9588
9574
9325
9468
9630
9560
9550
9551
9573
9580
9440
9510
9524
9530
9685
9645
9694
9669
9912
10035
10115
10069
10313
10326
10449
10510
10696
10869
11004
11240
11403
11477
11658
11985
12110
12229
12450
12637
12696
12665
12622
12590
12425
12175
11933
11803
11522
11006
10705
10252
10066
9756
9593
9429
9321
9071
8960
8957
8806
8682
8784
8778
8776
8787
8685
8640
8685
8485
8575
8597
8534
8502
8553
8454
8393
8410
8428
8456
8382
8386
8394
8305
8314
8325
8346
8196
8430
8380
8319
8378
8214
8193
8130
8095
8148
8275
8315
8308
8309
8333
8364
8246
8210
8187
8198
8254
8251
8222
8442
8340
8217
8073
8150
8300
8354
8189
8179
8247
8180
8327
8192
8236
8099
8312
8323
8279
8321
8365
8422
8362
8326
8178
8189
8316
8215
8296
8305
8232
8192
8272
8246
8250
8324
8350
8329
8291
8233
8255
8237
8264
8242
8269
8258
8144
8362
8241
8237
8285
8285
8223
8430
8275
8275
8168
8273
8191
8239
8327
8226
8278
8398
8230
8243
8332
8251
8407
8217
8296
8451


2024
3
10
15
16
2
0
1
O V
XPS

1486.7
300.0
1E37
1E37
1E37
1E37
FAT
50.00
5.0
2.800
1E37
2400
1200
1E37
1E37


-1
kinetic energy
eV
941.7
0.100
1
count rate
c/s
pulse counting
0.200
1
70E-9
1E37
1E37
1E37
0
201
48
2203
163
171
174
165
173
177
161
158
163
165
167
170
161
161
150
155
150
141
130
131
111
119
113
120
114
105
107
115
127
114
103
107
100
99
88
89
76
79
78
73
75
71
68
63
75
77
66
75
73
61
64
66
70
71
58
70
69
58
71
67
53
61
71
68
78
72
61
64
71
69
68
64
73
66
72
66
68
60
57
69
72
64
76
69
77
74
82
90
91
95
101
89
93
97
108
113
119
158
173
193
202
240
290
317
345
392
454
526
589
673
747
809
948
1083
1182
1264
1383
1469
1539
1716
1816
1872
1949
2081
2093
2165
2189
2203
2192
2166
2113
1984
1835
1734
1600
1501
1335
1195
1070
951
831
732
592
505
441
374
329
279
230
208
197
170
160
136
130
118
107
98
91
95
91
83
100
82
68
80
87
88
95
80
64
55
82
74
54
51
59
57
58
68
74
54
60
48
56
53
60
66
61
57
64
62
62
77
56
57
64
57
58
55
60
end of experiment
