VAMAS Surface Chemical Analysis Standard Data Transfer Format 1988 May 4




1
Experiment Type: XPS
NORM
REGULAR
6
0
0
0
0
0
6


2024
3
8
16
24
7
0
0
XPS

1486.7
300.0
1E37
1E37
1E37
1E37
FAT
50.00
5.0
2.800
1E37
2400
1200
1E37
1E37


-1
kinetic energy
eV
86.7
0.5
1
count rate
c/s
pulse counting
0.200
1
70E-9
1E37
1E37
1E37
0
2801
0
3372
359
421
388
412
393
402
383
416
391
398
396
383
398
388
415
399
393
358
365
385
387
383
349
403
376
392
380
393
388
364
375
377
366
366
342
363
312
343
325
341
357
334
324
338
363
379
359
340
341
335
307
315
364
328
315
329
348
337
317
345
326
322
308
328
356
320
356
361
330
318
340
324
335
299
318
322
328
324
315
325
331
327
329
327
329
309
311
295
297
309
326
312
311
329
312
312
306
292
311
313
304
310
299
313
323
330
312
303
323
261
293
295
299
286
295
301
298
297
281
284
305
286
302
297
318
297
280
277
309
316
310
321
309
292
289
293
289
291
298
285
283
310
273
325
301
307
328
298
302
314
277
286
271
295
286
252
287
295
296
319
287
292
292
304
295
270
297
294
279
264
288
288
278
290
282
300
309
310
307
319
292
271
272
276
290
279
282
282
291
295
285
271
297
303
303
288
280
279
309
268
282
306
294
291
310
273
321
325
286
282
289
303
295
316
289
293
281
307
285
278
279
257
281
324
286
290
296
286
283
313
311
308
303
291
283
315
289
299
287
288
304
288
309
300
317
311
301
302
302
305
292
290
294
294
299
303
279
301
275
278
273
298
276
284
290
299
278
270
317
311
325
286
286
330
297
307
300
303
282
289
302
299
316
288
278
285
312
317
306
308
304
302
308
295
321
305
301
300
317
308
297
295
300
308
294
317
273
301
335
315
304
297
300
297
290
326
307
308
311
328
313
300
308
327
345
299
273
317
293
296
321
345
296
331
330
308
311
307
308
328
319
332
318
317
325
313
327
298
325
333
331
329
340
299
309
284
300
326
315
331
301
326
329
330
317
333
313
322
329
338
334
343
316
363
322
313
338
316
322
318
329
328
334
330
326
292
345
315
346
347
322
327
311
311
321
308
331
294
341
349
305
316
333
348
328
333
305
343
356
313
334
317
322
328
324
306
335
341
339
336
356
337
303
295
317
316
363
326
331
359
370
332
338
320
315
331
337
363
327
334
349
329
339
320
346
324
317
298
332
307
343
333
315
329
348
353
340
303
347
336
336
324
328
362
343
347
333
347
322
341
321
354
348
361
338
358
357
321
329
342
318
341
333
367
384
359
348
316
373
377
361
335
363
299
317
336
357
352
364
359
348
321
352
367
357
349
344
362
340
332
375
384
383
362
322
353
355
355
366
354
340
337
343
357
350
336
346
345
357
349
373
361
368
360
357
365
346
377
392
369
343
376
369
378
394
369
352
368
344
372
365
377
367
345
365
410
354
386
377
356
366
372
371
394
373
392
353
352
364
350
379
342
365
376
388
357
358
365
384
380
369
404
382
378
375
378
350
377
416
384
410
404
391
391
353
378
353
398
408
357
375
365
419
386
404
383
374
396
414
407
392
398
389
361
398
387
380
360
389
377
403
422
374
371
390
374
374
398
412
396
404
385
381
366
379
409
379
424
404
403
378
426
409
387
376
400
431
420
363
367
415
391
393
422
425
381
384
425
410
410
404
420
430
418
422
428
402
431
408
412
401
414
413
415
406
406
406
408
424
399
389
425
403
398
424
407
435
400
430
372
417
407
464
425
437
429
408
404
392
397
408
403
399
425
422
429
412
425
419
443
432
399
428
433
414
404
413
434
406
420
431
439
438
444
448
462
463
435
444
426
469
464
447
435
440
470
444
445
465
441
429
412
443
419
452
452
442
481
454
451
459
468
468
467
491
470
464
438
469
500
473
464
519
505
507
472
463
476
477
485
481
460
497
471
439
425
457
484
470
463
473
493
495
511
489
488
506
505
496
502
518
538
502
495
552
556
557
548
544
535
499
478
523
526
497
475
473
490
450
505
498
455
477
477
419
456
457
444
410
442
448
463
458
458
451
453
454
503
467
531
527
567
607
574
617
608
647
682
711
689
690
689
633
608
554
523
515
502
465
436
411
410
373
386
350
356
359
377
360
336
314
285
295
282
279
248
283
280
268
303
278
285
244
266
257
265
280
233
220
231
266
275
260
276
253
273
267
274
251
266
260
255
258
268
251
254
254
262
272
250
243
295
279
290
281
263
264
264
245
258
285
255
256
249
257
259
295
267
263
261
290
265
271
262
283
256
260
277
258
267
249
268
279
245
276
280
253
257
269
252
281
279
286
271
261
254
271
288
285
300
258
255
250
263
263
270
264
250
278
282
262
268
273
267
254
276
268
260
273
266
261
270
236
261
279
285
269
274
269
281
266
260
264
272
283
278
273
271
273
287
268
258
278
255
264
284
274
280
291
289
282
269
253
252
275
257
259
262
266
254
271
279
290
285
276
270
287
287
274
267
269
278
258
247
255
268
265
292
270
278
260
248
274
286
294
282
303
278
284
275
263
297
278
300
282
260
253
282
257
293
287
286
265
300
293
299
282
275
282
251
287
262
276
261
243
265
284
290
287
282
253
275
286
273
284
263
247
277
277
297
297
303
296
297
303
275
314
328
295
275
269
292
284
298
301
292
271
287
279
246
261
291
274
246
246
246
249
253
255
262
301
277
289
300
287
263
258
270
263
265
262
259
286
267
276
278
295
306
294
291
296
264
269
298
295
284
297
271
292
290
288
283
273
274
288
287
271
258
271
289
265
258
277
265
264
286
308
278
294
278
279
291
271
301
257
288
276
300
290
288
285
279
268
283
315
256
262
276
306
294
271
251
255
287
283
282
271
287
269
296
286
263
267
292
281
292
290
279
280
284
278
272
278
296
264
295
261
307
285
279
294
295
278
265
266
276
303
287
308
274
258
273
277
264
302
299
287
278
290
309
275
302
296
289
285
315
284
266
300
293
289
282
299
296
291
300
293
293
284
259
294
287
310
279
261
308
297
267
316
296
304
295
282
282
246
243
294
329
314
275
270
283
266
289
303
290
298
293
295
316
280
273
280
306
267
286
321
284
288
294
287
311
331
307
301
301
285
274
289
304
292
302
291
261
278
266
278
277
298
294
302
288
282
289
293
267
297
284
277
300
301
289
299
287
308
306
292
306
307
290
299
294
283
287
286
306
317
307
310
302
322
315
296
299
293
300
310
298
300
298
291
285
298
310
303
295
280
284
295
324
296
292
309
304
295
326
283
291
326
293
296
310
305
293
273
310
302
297
303
302
317
285
301
321
293
304
316
306
296
296
307
299
297
295
314
319
297
288
310
327
316
295
294
290
312
320
290
288
307
330
319
324
303
310
283
288
262
299
295
318
302
316
318
345
349
296
302
293
300
299
298
295
354
311
312
340
306
291
303
295
316
310
276
275
325
307
283
335
335
331
299
318
303
316
311
304
305
297
336
330
310
335
308
325
327
339
311
329
312
320
319
317
351
346
337
307
323
317
308
302
305
317
318
334
312
332
316
318
337
336
312
282
323
325
329
288
279
290
314
304
288
283
319
322
327
309
341
362
314
306
344
360
337
329
307
336
330
340
343
340
327
333
364
342
310
306
297
331
331
324
319
297
306
332
317
288
319
317
303
341
286
311
322
346
331
347
346
327
308
316
348
363
325
326
336
341
328
311
345
329
287
341
313
334
335
360
334
334
348
320
340
312
339
372
372
345
352
343
337
316
328
323
367
331
344
327
357
379
336
331
372
336
358
348
324
339
347
348
350
371
380
373
345
324
334
324
349
329
346
340
326
343
365
340
396
371
354
358
365
360
378
352
353
364
340
347
356
348
378
372
326
377
391
365
344
369
363
369
385
373
352
340
357
351
351
362
350
347
347
359
356
377
370
383
356
380
356
360
355
366
353
336
340
360
354
359
330
330
324
324
356
372
343
351
363
359
385
401
375
376
412
436
432
412
439
419
441
437
491
479
485
473
448
433
450
410
381
369
360
354
335
343
318
306
341
327
288
285
276
262
268
260
228
219
185
177
146
108
96
103
76
80
79
86
77
78
95
104
123
156
277
547
1068
1918
2981
3372
3071
2136
1138
497
238
109
120
107
80
86
81
75
73
79
93
72
73
79
81
74
83
79
86
76
85
65
75
61
67
77
73
66
67
75
62
60
79
84
72
65
67
64
69
73
65
69
61
76
64
71
60
66
67
60
88
62
66
68
79
72
76
66
78
71
89
81
71
84
95
70
69
68
65
61
62
82
70
76
65
68
83
83
68
76
62
71
77
66
70
69
60
73
78
73
60
61
77
72
74
73
56
66
67
81
73
55
59
68
67
78
63
61
66
71
77
76
73
68
68
70
69
61
76
75
65
64
68
78
69
58
61
67
71
72
64
79
81
79
73
58
67
58
63
59
64
70
72
66
61
73
67
61
72
69
54
62
59
68
87
66
68
67
63
68
66
66
71
72
87
89
70
63
70
68
73
67
64
46
57
56
66
72
69
63
66
62
84
67
65
80
65
81
71
56
51
66
89
66
73
58
72
62
58
71
64
55
55
70
69
71
63
79
77
78
74
78
77
69
69
80
65
64
61
76
63
67
80
65
74
67
65
72
68
72
71
81
83
58
68
74
67
76
67
81
64
70
86
63
69
70
80
73
71
64
76
76
69
75
68
78
64
72
66
71
66
77
79
70
70
75
77
70
67
80
70
66
55
74
71
65
75
73
65
64
77
80
67
62
74
61
64
69
71
63
78
64
75
69
65
78
69
76
73
77
79
80
81
78
73
77
64
66
69
73
76
85
64
77
92
80
78
69
59
76
70
73
75
67
59
66
68
64
68
84
62
57
65
78
71
78
54
65
77
83
73
67
70
64
68
50
73
72
69
79
70
59
72
86
82
74
74
65
74
74
64
73
75
74
75
75
71
75
73
74
73
65
72
69
75
78
73
76
67
74
83
76
77
75
69
75
67
61
74
77
68
67
62
70
66
71
74
61
66
73
67
72
60
64
72
79
84
81
81
86
72
77
71
71
70
68
65
66
76
85
75
65
76
67
58
61
69
70
71
78
84
83
79
74
73
70
66
65
70
73
75
95
66
69
76
78
69
83
80
88
85
70
71
69
73
72
71
70
73
60
69
78
70
74
72
75
61
57
94
77
72
58
70
67
72
73
71
71
69
77
73
79
65
73
80
70
95
84
90
105
93
91
79
88
89
78
61
67
57
64
76
77
72
71
78
80
61
72
81
73
73
65
78
61
69
77
75
68
61
71
79
90
73
77
66
70
73
75
83
90
68
76
64
66
68
72
66
92
82
71
74
64
75
76
75
74
65
64
71
70
79
82
65
76
76
83
83
84
73
90
71
59
72
69
64
69
67
78
78
78
89
84
87
76
73
69
64
81
76
76
77
67
68
88
72
82
79
71
84
69
89
97
74
66
79
77
66
66
79
67
65
88
67
84
78
69
73
75
73
80
77
68
77
73
76
92
79
89
78
75
82
85
91
87
79
79
81
91
88
77
56
79
75
71
83
76
82
74
80
80
94
80
87
89
77
84
75
81
81
68
68
79
86
86
84
81
84
85
89
80
92
103
76
85
88
90
84
83
81
77
83
77
91
84
101
83
105
79
85
86
92
99
93
92
86
85
87
87
83
90
86
86
74
78
82
92
84
95
90
96
82
91
91
90
99
102
101
94
97
87
104
107
93
97
93
102
95
93
85
93
88
93
101
87
79
79
85
74
56
88
79
76
76
55
50
66
56
38
46
53
59
53
59
65
81
73
94
140
168
287
321
381
445
426
348
222
166
118
91
78
84
66
65
72
67
67
57
58
56
53
49
63
61
50
60
47
56
53
50
55
59
51
53
56
52
60
68
49
47
52
51
55
43
46
45
56
44
50
47
54
57
49
56
51
56
63
51
71
81
80
59
60
54
66
62
57
45
57
57
56
62
50
54
54
53
48
45
58
42
40
38
39
29
32
30
22
24
21
17
18
24
22
11
10
16
22
14
12
21
33
90
193
293
431
514
433
279
151
74
36
24
25
16
19
13
13
22
15
12
14
24
16
11
11
14
11
18
15
19
18
12
21
17
16
15
20
12
17
15
20
18
18
15
19
15
16
19
19
14
14
18
14
16
16
18
13
17
20
18
17
21
16
17
17
19
11
15
20
22
18
19
16
11
11
18
15
18
19
24
18
16
20
15
12
16
20
23
22
12
18
14
24
17
17
14
20
13
20
19
19
22
18
15
19
22
26
19
20
19
18
23
22
21
26
22
19
16
18
24
20
32
21
27
18
20
13
18
18
16
17
18
18
10
6
11
10
13
15
14
7
19
14
17
15
14
16
14
12
18
21
20
18
20
29
36
34
49
52
60
72
85
78
83
56
36
22
17
12
6
4
3
7
4
2
2
1
1
1
3
8
16
12
15
11
15
13
12
12
15
10
12
13
17
15
13
21
22
19
9
8
6
2
0
0
1
1
0
1
0
0
1


2024
3
8
16
24
7
0
1
O
XPS

1486.7
300.0
1E37
1E37
1E37
1E37
FAT
50.00
5.0
2.800
1E37
2400
1200
1E37
1E37


-1
kinetic energy
eV
941.7
0.100
1
count rate
c/s
pulse counting
0.200
2
70E-9
1E37
1E37
1E37
0
201
140
7012
510
518
500
525
480
491
474
456
486
458
441
439
439
445
442
430
418
389
387
414
379
355
325
336
325
320
320
299
291
277
260
251
254
234
233
247
235
228
230
210
211
186
184
188
181
193
175
179
173
172
163
167
163
176
174
174
154
161
169
159
159
164
155
158
164
154
160
168
170
163
175
178
172
163
165
159
184
174
185
178
197
173
173
188
206
194
201
204
199
212
216
201
230
250
268
292
336
372
416
450
500
581
677
759
882
1026
1221
1410
1625
1882
2107
2351
2685
3042
3436
3859
4178
4568
4950
5278
5702
6020
6358
6676
6781
6840
7012
6829
6688
6611
6365
6059
5665
5262
4796
4338
3977
3476
3024
2605
2300
1945
1606
1378
1162
1000
811
679
582
499
436
371
328
320
307
277
245
234
236
221
212
221
184
199
187
168
181
176
194
179
169
165
152
171
152
152
165
158
151
150
166
163
159
153
166
151
140
152
156
161
146
170
161
144
151
151
140
150
141
144
145


2024
3
8
16
24
7
0
1
c
XPS

1486.7
300.0
1E37
1E37
1E37
1E37
FAT
50.00
5.0
2.800
1E37
2400
1200
1E37
1E37


-1
kinetic energy
eV
1211.7
-0.100
1
count rate
c/s
pulse counting
0.200
10
70E-9
1E37
1E37
1E37
0
201
681
923
720
736
750
749
729
708
690
698
732
711
716
734
762
730
721
733
737
691
692
690
722
755
739
749
728
705
735
707
722
733
750
768
753
766
749
735
727
717
742
737
762
755
745
748
789
760
726
715
710
711
747
728
756
727
717
756
749
732
708
753
742
723
717
698
729
754
754
795
753
763
744
724
763
798
775
781
821
828
822
808
795
822
827
810
822
797
875
867
853
878
890
887
863
846
868
882
873
893
914
883
867
923
882
878
909
877
858
892
916
905
865
848
864
903
899
859
800
787
792
794
775
775
742
741
753
745
724
735
748
748
740
760
697
692
709
755
747
729
737
739
723
716
745
751
727
732
732
743
718
732
734
734
708
722
707
701
707
701
746
684
758
749
742
727
732
754
712
728
691
685
718
699
701
733
762
701
697
740
755
737
733
694
718
723
771
742
737
702
708
722
681
690
707
731
724
705
681
727
711
697
692


2024
3
8
16
24
7
0
1
Si
XPS

1486.7
300.0
1E37
1E37
1E37
1E37
FAT
50.00
5.0
2.800
1E37
2400
1200
1E37
1E37


-1
kinetic energy
eV
1376.7
0.100
1
count rate
c/s
pulse counting
0.200
5
70E-9
1E37
1E37
1E37
0
201
65
2536
96
91
77
81
83
88
77
87
87
85
85
78
75
73
83
78
86
91
81
73
80
79
78
90
83
81
78
89
82
93
82
75
83
86
88
90
99
84
98
101
107
97
120
136
149
185
201
248
283
331
374
452
515
560
684
797
959
1097
1201
1412
1478
1632
1818
1924
2046
2184
2247
2368
2536
2456
2456
2475
2468
2411
2309
2237
2066
1914
1764
1623
1465
1298
1129
984
848
696
622
524
406
343
291
242
200
171
153
150
118
107
94
98
87
86
87
86
79
81
88
85
81
74
77
81
86
75
86
70
69
81
82
78
87
77
77
82
74
75
81
83
78
86
83
85
76
76
65
78
76
73
75
81
88
76
87
85
81
79
77
67
66
73
78
88
75
65
74
79
91
83
71
75
81
71
83
72
70
78
74
74
81
82
68
81
77
79
76
75
82
83
80
84
87
74
82
85
71
80
75
76
73
81
78
79
79
70
86
95
96
100
88
89
93


2024
3
8
16
24
7
0
1
Ni
XPS

1486.7
300.0
1E37
1E37
1E37
1E37
FAT
50.00
5.0
2.800
1E37
2400
1200
1E37
1E37


-1
kinetic energy
eV
596.7
0.100
1
count rate
c/s
pulse counting
0.200
40
70E-9
1E37
1E37
1E37
0
501
10807
12021
11261
11117
11255
11118
11141
11156
11039
11135
11225
11252
11203
11158
11157
11208
11188
11208
11235
11079
11095
10945
11023
11077
11262
11106
10970
11138
11285
11220
11088
11014
11069
11165
11199
11085
11183
11140
11139
11097
11258
11306
11143
11101
11266
11126
11169
11154
11355
11132
11233
11221
11234
11139
11009
11189
10997
11121
11193
11340
11333
11198
11252
11273
11367
11220
11214
11202
11194
11260
11303
11254
11187
11375
11234
11240
11453
11366
11288
11226
11330
11235
11272
11076
11129
11385
11319
11451
11250
11349
11374
11115
11300
11316
11384
11365
11289
11288
11346
11208
11241
11361
11257
11305
11238
11316
11369
11323
11455
11511
11378
11351
11493
11375
11389
11424
11352
11225
11337
11266
11272
11268
11346
11312
11292
11344
11437
11237
11236
11256
11268
11431
11356
11463
11398
11260
11492
11487
11452
11243
11362
11454
11522
11506
11511
11346
11428
11555
11357
11356
11349
11411
11594
11364
11287
11387
11311
11375
11590
11394
11423
11537
11396
11614
11528
11405
11409
11449
11517
11449
11425
11334
11374
11497
11398
11529
11613
11458
11349
11470
11571
11372
11475
11389
11478
11587
11577
11497
11549
11487
11496
11453
11426
11441
11275
11380
11374
11354
11278
11336
11085
11143
11301
11287
11354
11215
11234
11318
11081
11118
11169
11135
11103
11149
11141
11156
11147
11121
11207
11220
11240
11135
11208
11115
11099
11156
11057
11214
11015
10964
11118
11091
11072
11196
11131
11199
11216
11323
11240
11223
11286
11200
11223
11375
11491
11383
11357
11233
11230
11095
11190
11177
11300
11231
11108
11155
11194
11287
11447
11374
11322
11350
11327
11421
11396
11425
11367
11252
11346
11405
11407
11327
11522
11570
11520
11459
11521
11498
11543
11430
11498
11427
11483
11497
11454
11461
11422
11402
11409
11418
11449
11424
11532
11308
11356
11399
11456
11378
11391
11455
11410
11465
11279
11328
11402
11501
11569
11434
11643
11470
11445
11442
11577
11467
11431
11582
11439
11385
11434
11486
11535
11618
11468
11492
11624
11596
11480
11593
11716
11553
11690
11651
11641
11751
11701
11628
11626
11524
11664
11708
11633
11607
11628
11752
11799
11772
11760
11591
11732
11924
11871
11892
11893
11773
11745
11792
11885
12021
11882
11909
11954
11871
11918
11882
11884
11829
11845
11879
11727
11557
11596
11530
11422
11504
11381
11266
11201
11312
11068
10982
11219
11177
11068
11095
11128
11175
11095
10939
10918
11020
10949
10976
10940
11022
11042
10950
10967
10934
11017
10962
10940
10893
10962
10891
10931
10989
10988
10951
10909
11102
10995
10812
10899
11021
10865
10878
11076
11027
11015
10890
10822
11029
11002
10930
10913
10925
10948
10996
11023
11123
11050
10948
10873
10971
11071
10962
10810
10807
10985
10964
10933
11063
11077
10969
11073
11050
10900
10916
10919
10956
11004
10984
10892
10967
10896
10980
11045
11015
10959
10877
11045
10990
10945
11125
11135
11034
11017
10949
11144
11144
11055
11066
11174
11218
10970
11037
11143
11063
11004
11078
11059
11077
11050
11007
11031
11127
11165
11030
10874
11116
11158
11203
11174
11001
10911
10984
11108
11120
11202
10984
10894
10927
11001


2024
3
8
16
24
7
0
1
O V
XPS

1486.7
300.0
1E37
1E37
1E37
1E37
FAT
50.00
5.0
2.800
1E37
2400
1200
1E37
1E37


-1
kinetic energy
eV
941.7
0.100
1
count rate
c/s
pulse counting
0.200
1
70E-9
1E37
1E37
1E37
0
201
68
3517
251
273
268
263
247
240
243
256
234
217
207
234
224
225
233
216
214
197
218
211
189
196
188
175
186
178
150
153
146
133
138
117
126
129
121
107
108
108
100
104
110
99
98
89
93
86
92
92
76
92
100
84
80
90
94
91
84
92
78
83
87
85
80
82
74
85
86
97
79
74
75
89
78
77
89
80
84
86
74
79
80
95
84
89
81
93
96
94
101
112
97
111
122
138
141
165
153
185
208
204
270
313
349
392
453
498
580
653
784
922
1052
1214
1345
1501
1698
1891
2168
2380
2523
2674
2794
2958
3156
3342
3382
3509
3505
3517
3457
3430
3348
3131
3002
2783
2592
2352
2121
1904
1721
1469
1241
1053
928
793
630
516
458
384
332
298
238
211
181
154
135
131
150
136
117
117
127
107
104
111
117
95
101
100
91
99
84
91
86
87
79
77
86
82
78
75
84
85
90
81
81
95
89
81
81
68
84
81
76
82
85
75
70
78
76
77
81
end of experiment
