VAMAS Surface Chemical Analysis Standard Data Transfer Format 1988 May 4




1
Experiment Type: XPS
NORM
REGULAR
6
0
0
0
0
0
6


2024
3
9
13
49
27
0
0
XPS

1486.7
300.0
1E37
1E37
1E37
1E37
FAT
50.00
5.0
2.800
1E37
2400
1200
1E37
1E37


-1
kinetic energy
eV
86.7
0.5
1
count rate
c/s
pulse counting
0.200
1
70E-9
1E37
1E37
1E37
0
2801
0
2878
450
404
428
385
438
431
403
435
427
455
407
451
483
439
489
482
447
468
426
411
436
432
443
449
418
431
398
392
411
399
394
406
401
418
386
409
412
389
418
421
406
370
391
418
393
404
395
408
384
378
382
370
336
360
375
382
379
354
380
341
357
348
335
333
307
340
319
344
311
315
325
310
329
333
319
345
320
295
310
306
298
347
344
323
326
335
318
331
297
271
322
303
315
293
288
300
289
279
279
293
310
313
287
295
301
292
284
326
300
300
289
293
299
305
283
286
336
326
343
331
345
351
338
333
328
332
318
333
334
304
321
307
311
343
327
335
323
306
338
317
319
314
302
320
329
346
308
346
320
307
286
291
282
267
277
266
287
284
260
263
250
290
274
274
299
312
286
299
320
305
313
326
341
305
292
304
299
284
302
296
292
291
290
294
298
295
292
298
296
301
290
309
303
268
282
284
282
293
319
307
304
313
288
285
292
282
278
261
290
280
302
293
293
311
294
302
292
316
313
308
295
326
329
363
318
275
326
312
306
322
338
314
308
308
302
320
326
323
333
322
310
328
307
312
333
351
333
312
299
335
321
312
317
311
321
296
303
327
308
323
314
287
297
318
324
301
320
317
299
332
355
313
307
312
311
325
324
339
316
315
308
326
300
306
296
311
313
309
331
352
314
317
358
342
322
317
335
348
328
297
320
340
302
330
334
333
300
306
347
311
326
338
302
337
320
330
362
312
329
316
332
328
342
341
347
335
330
353
338
320
294
316
320
335
334
332
338
320
325
332
333
353
349
309
365
323
363
355
345
339
361
340
353
304
347
355
343
347
364
360
344
328
333
308
346
328
347
331
341
361
319
322
349
356
332
341
327
328
339
376
375
318
302
366
359
363
339
352
365
374
344
359
340
345
373
324
355
343
329
318
339
351
344
358
341
364
363
351
326
353
334
363
382
347
367
374
364
346
354
361
336
348
378
364
349
381
353
372
380
383
363
362
331
354
373
341
362
324
342
370
354
337
348
398
367
366
362
329
359
373
369
383
345
351
358
367
362
384
373
371
380
344
368
369
371
389
349
350
363
344
351
383
358
378
361
369
391
390
384
380
369
373
375
376
356
359
367
380
387
393
364
390
390
396
355
375
396
366
353
393
382
383
417
373
378
406
401
399
395
417
383
400
356
390
392
440
374
392
412
418
393
363
374
378
402
382
402
402
374
365
383
421
375
370
378
379
387
428
401
386
399
416
407
381
412
405
388
421
415
429
412
394
364
391
397
390
413
422
456
406
405
416
410
442
434
424
439
398
420
421
401
416
387
389
391
398
403
382
398
415
385
399
395
407
405
434
392
384
397
422
386
405
403
425
448
436
435
441
427
410
405
400
402
421
418
391
413
428
409
446
425
399
410
418
442
397
423
426
419
431
430
403
412
425
432
425
449
444
446
433
425
458
427
417
474
393
400
396
471
435
404
437
424
445
431
399
442
397
415
427
421
473
457
445
447
453
498
461
455
456
419
444
492
450
453
432
463
455
433
466
436
442
422
467
469
445
444
436
430
424
471
468
456
472
471
422
441
464
462
449
408
434
437
463
443
439
456
495
481
494
486
428
456
447
437
464
459
471
492
414
459
462
477
460
426
420
471
478
486
499
481
459
462
434
478
480
477
465
469
463
463
447
500
445
454
471
465
462
476
479
486
474
479
496
449
492
505
483
497
492
489
465
514
484
486
499
483
508
462
488
465
448
500
527
506
543
493
513
536
507
493
500
518
534
509
483
478
481
447
452
452
469
481
482
452
423
478
488
488
497
504
510
515
532
539
529
588
544
595
555
601
552
564
530
513
494
504
511
492
501
497
491
503
463
482
490
450
424
431
477
438
463
483
456
539
453
489
501
500
563
620
609
622
624
623
624
623
644
672
667
728
728
713
622
604
561
538
555
544
534
459
443
469
427
439
408
399
393
374
390
398
356
334
361
357
325
333
341
323
358
325
336
305
293
320
319
332
334
336
311
358
317
336
331
318
322
284
325
320
319
341
318
326
330
340
339
349
300
311
306
317
336
325
314
324
309
304
336
323
297
284
303
326
322
295
320
311
301
312
284
304
320
301
312
327
307
289
300
262
287
311
326
335
316
318
295
292
330
338
316
322
318
320
304
312
289
303
329
317
349
349
333
316
319
329
319
356
313
355
339
341
328
324
316
340
328
351
344
339
324
336
351
293
335
329
365
307
322
313
309
331
332
334
309
347
335
359
336
352
329
314
311
282
335
337
335
286
324
331
343
312
363
355
365
313
339
366
347
312
332
348
338
351
347
343
334
345
351
334
321
317
325
316
316
348
319
350
334
315
327
296
300
332
337
326
342
336
317
320
326
335
337
315
327
338
319
308
341
313
313
308
307
341
348
338
325
336
321
276
307
312
296
320
301
270
291
299
299
322
301
331
319
325
333
325
330
360
343
319
354
346
310
327
310
343
346
345
392
381
358
334
346
336
341
304
316
283
271
262
260
279
280
299
294
249
263
294
272
299
288
270
270
279
242
244
259
246
242
241
277
260
246
268
232
260
280
265
271
271
273
271
271
238
256
232
265
283
233
263
300
269
259
255
278
290
264
244
266
272
302
266
297
297
273
279
267
262
293
261
278
260
242
286
269
258
243
245
241
221
230
240
263
247
256
260
247
253
270
278
291
292
266
304
305
277
275
313
284
315
335
319
339
285
283
298
315
304
301
323
315
309
311
310
292
310
301
319
305
309
272
305
283
281
312
308
319
305
317
327
305
325
319
316
326
273
305
304
296
295
292
330
300
308
322
309
306
335
304
279
336
339
345
317
323
306
325
332
283
318
328
313
305
285
326
321
304
311
330
334
341
313
307
264
297
329
328
321
323
313
283
293
324
327
283
311
311
329
298
286
307
299
311
318
315
286
316
308
291
283
311
289
301
301
286
309
316
302
288
307
292
323
311
324
278
350
318
308
309
322
317
305
314
300
310
329
324
332
330
324
293
303
321
286
310
303
305
299
287
274
315
308
307
313
300
334
307
292
317
326
308
326
322
337
306
307
320
320
296
316
316
335
296
293
320
332
309
324
321
343
320
318
328
333
306
306
329
327
306
305
320
345
343
347
317
309
323
316
328
341
319
314
346
325
327
315
296
331
361
332
305
315
344
289
301
305
331
335
323
318
305
302
292
314
315
280
337
315
338
292
335
298
340
293
298
291
307
307
303
296
312
323
328
323
321
314
315
281
307
292
303
316
295
313
312
311
315
331
305
308
317
313
323
335
316
335
316
273
300
305
312
324
288
331
332
333
320
299
335
327
344
305
334
299
332
334
311
306
320
317
317
326
317
314
324
355
295
320
332
317
304
334
305
350
338
332
339
323
310
305
311
296
318
321
358
330
309
327
304
302
340
324
359
332
295
306
334
352
363
342
331
360
324
331
360
350
336
346
354
316
353
323
357
338
348
324
308
322
297
334
311
319
297
327
305
304
317
315
310
285
324
291
310
320
334
342
303
335
308
319
338
348
318
325
341
357
336
297
305
302
305
302
333
318
301
311
334
327
279
311
333
312
336
326
304
310
300
322
297
307
297
319
328
313
323
324
341
324
347
353
327
345
326
292
315
300
346
357
319
304
347
357
349
325
320
327
333
365
371
300
324
344
361
378
336
331
340
339
332
344
315
334
345
338
337
371
330
340
326
338
336
328
355
347
328
357
351
326
350
343
348
310
348
351
337
315
339
328
319
322
334
313
327
345
340
365
323
318
316
344
348
353
343
356
317
320
310
316
309
333
307
339
339
319
353
327
325
344
373
375
365
428
390
387
391
429
401
428
449
456
437
478
476
442
444
424
382
360
330
340
338
323
294
299
273
322
284
279
269
252
270
234
254
233
201
191
180
155
127
106
91
106
84
85
86
94
89
105
90
107
154
234
435
923
1537
2384
2878
2836
2073
1158
543
247
151
116
102
91
79
86
81
86
85
80
74
89
73
70
68
81
77
92
60
67
73
86
76
83
86
74
74
72
81
75
80
72
70
82
64
75
84
78
69
78
73
78
86
71
63
81
81
69
71
69
81
74
74
75
77
74
68
82
78
84
84
79
75
79
78
76
62
72
67
65
77
73
79
68
73
74
59
82
80
67
57
62
82
74
75
76
59
74
61
68
80
73
66
66
65
78
68
71
67
65
81
66
82
88
76
67
76
71
67
85
78
90
69
71
76
76
76
69
66
76
79
69
78
61
70
69
72
68
71
76
72
88
78
62
67
65
68
75
50
67
69
70
69
65
62
78
65
77
62
68
75
83
68
81
68
66
72
83
70
74
79
74
68
72
69
91
88
79
64
86
76
62
62
56
65
65
72
79
61
70
75
57
65
65
56
66
86
73
77
67
62
64
64
78
80
81
68
68
63
69
72
77
70
68
64
71
81
73
88
82
73
81
72
77
75
70
67
76
69
63
73
64
68
71
74
73
69
71
65
74
64
80
69
75
70
76
74
66
63
62
71
73
73
59
64
61
67
59
72
59
58
73
68
70
68
83
73
71
69
75
76
86
84
71
68
61
64
55
74
52
70
68
52
66
67
65
73
62
68
66
65
67
64
60
70
67
65
66
57
70
72
73
60
64
61
56
73
64
69
72
62
59
65
69
66
63
75
66
73
73
59
64
60
73
69
70
67
81
63
57
66
64
75
73
73
76
71
78
74
71
71
78
92
75
76
65
66
68
63
77
68
52
61
62
47
65
50
47
54
55
52
52
50
56
51
50
62
53
55
57
60
54
72
56
53
52
49
41
48
67
63
55
59
59
57
50
57
54
64
60
65
53
55
63
56
62
46
59
59
51
61
52
65
52
53
52
65
61
38
59
54
55
54
52
52
54
50
41
55
56
70
54
64
49
48
52
53
62
60
54
55
59
58
58
50
52
66
58
56
57
62
67
56
52
57
52
66
74
57
66
53
52
54
46
60
71
56
64
66
53
44
50
52
61
59
64
56
59
61
53
54
61
55
52
54
50
48
55
52
55
57
48
48
46
52
53
56
48
59
48
52
47
57
60
63
78
67
59
61
69
68
64
61
53
65
66
51
55
43
48
55
60
58
55
56
61
63
48
65
56
52
56
45
40
59
67
65
59
64
62
46
66
66
57
48
58
65
56
62
52
55
55
60
64
58
58
63
67
54
61
59
53
58
54
51
65
56
63
57
63
61
61
61
53
60
47
46
52
57
59
51
57
50
63
56
61
66
60
43
48
47
60
59
56
56
63
61
61
65
47
67
61
55
62
64
60
57
65
61
60
53
68
73
55
53
63
61
51
56
52
56
57
50
58
63
63
71
61
57
59
61
60
59
64
67
67
52
55
57
70
75
74
62
65
59
65
61
72
52
63
49
49
65
62
59
61
63
57
63
57
72
55
66
52
61
70
55
60
63
65
58
67
64
57
64
66
56
54
59
58
63
67
57
65
55
61
53
59
78
58
63
63
64
55
69
62
65
71
72
64
63
73
53
64
66
69
56
58
57
69
73
64
58
63
64
71
72
70
78
65
54
78
73
77
69
61
63
59
69
66
74
78
62
77
66
62
72
66
63
66
54
63
63
53
46
47
47
52
56
44
48
58
48
50
47
40
38
42
45
41
40
35
46
49
53
60
77
112
156
218
291
300
286
237
175
131
104
78
60
49
53
47
47
45
43
44
47
48
39
33
40
33
43
38
40
43
47
31
37
47
45
43
33
34
39
35
38
36
32
40
35
41
36
29
35
37
35
45
41
38
38
36
42
48
47
53
44
39
41
52
61
44
40
44
55
45
48
48
53
50
38
42
30
50
40
30
37
25
32
39
22
24
31
28
21
22
20
13
12
12
19
15
17
17
20
20
19
17
21
63
100
157
273
319
280
214
129
53
28
16
12
19
17
13
12
17
14
17
9
15
17
13
10
11
7
16
13
18
15
11
17
16
19
11
9
15
15
15
24
15
19
14
20
17
10
7
10
11
16
14
10
11
13
13
8
15
17
17
19
13
15
15
16
14
13
13
22
21
15
16
21
22
22
23
16
10
10
20
13
13
11
17
11
13
16
13
12
10
11
12
10
11
13
9
12
14
9
13
13
10
7
10
16
14
18
14
15
16
16
15
16
13
13
11
17
15
15
11
8
6
10
17
13
18
19
18
14
17
9
14
8
8
9
9
12
8
8
8
4
6
6
12
13
8
10
13
12
13
15
9
10
14
14
17
24
24
37
44
58
58
53
45
32
21
14
10
8
4
1
3
1
1
1
0
2
3
4
3
2
6
10
13
15
13
16
10
14
8
10
9
8
10
10
7
9
9
9
14
10
7
6
3
4
1
1
1
2
1
1
2


2024
3
9
13
49
27
0
1
O
XPS

1486.7
300.0
1E37
1E37
1E37
1E37
FAT
50.00
5.0
2.800
1E37
2400
1200
1E37
1E37


-1
kinetic energy
eV
941.7
0.100
1
count rate
c/s
pulse counting
0.200
2
70E-9
1E37
1E37
1E37
0
201
94
4228
367
350
320
329
331
336
327
337
329
328
297
325
301
306
289
268
278
286
269
254
240
234
265
258
255
240
232
238
211
210
189
190
194
190
170
175
169
168
176
172
155
146
163
152
158
154
152
152
155
137
136
129
128
133
129
131
142
122
132
122
105
116
124
127
123
125
131
125
125
127
124
127
129
129
123
127
130
118
118
129
138
126
113
111
135
148
144
151
141
145
147
142
169
176
177
168
189
221
241
261
264
290
349
426
466
547
631
713
791
912
1025
1127
1258
1456
1672
1900
2082
2348
2514
2668
2977
3222
3443
3639
3698
3988
4135
4225
4228
4112
4077
4055
3898
3811
3580
3343
3137
2824
2519
2279
1995
1749
1515
1358
1126
930
795
711
607
524
439
398
336
300
265
244
219
217
201
191
169
171
153
149
161
134
150
153
134
123
135
118
109
118
103
104
119
110
110
112
118
113
121
128
122
103
111
120
113
125
121
120
117
113
112
122
104
94
106
111
113


2024
3
9
13
49
27
0
1
c
XPS

1486.7
300.0
1E37
1E37
1E37
1E37
FAT
50.00
5.0
2.800
1E37
2400
1200
1E37
1E37


-1
kinetic energy
eV
1211.7
-0.100
1
count rate
c/s
pulse counting
0.200
10
70E-9
1E37
1E37
1E37
0
201
617
893
697
699
691
702
693
719
690
683
692
676
680
686
727
700
686
720
691
697
670
704
717
683
677
684
617
658
683
634
690
661
655
684
677
667
692
664
686
681
707
695
681
696
720
706
679
677
656
633
648
660
682
689
699
692
715
687
680
709
704
705
726
720
711
739
711
733
713
704
714
714
756
772
779
757
771
815
797
813
826
853
852
822
870
893
861
848
857
847
797
825
851
819
834
844
806
810
796
818
782
784
758
762
770
777
772
759
785
753
742
788
802
765
739
713
715
707
723
721
730
710
686
704
669
704
691
689
675
660
678
694
662
685
664
663
721
692
655
658
631
626
647
674
673
635
683
681
688
679
701
671
657
673
677
672
662
663
651
655
646
631
653
664
641
668
698
663
642
674
657
676
671
704
660
664
648
684
698
689
669
674
678
673
673
645
681
685
667
678
668
674
634
636
661
673
650
656
649
661
684
668
677


2024
3
9
13
49
27
0
1
Si
XPS

1486.7
300.0
1E37
1E37
1E37
1E37
FAT
50.00
5.0
2.800
1E37
2400
1200
1E37
1E37


-1
kinetic energy
eV
1376.7
0.100
1
count rate
c/s
pulse counting
0.200
5
70E-9
1E37
1E37
1E37
0
201
79
2201
106
112
117
116
104
103
97
103
110
109
104
106
103
95
98
107
101
92
114
103
112
109
100
92
103
96
118
98
107
115
129
104
107
95
99
99
115
114
115
137
147
139
146
165
156
198
217
254
306
328
397
414
475
547
617
710
808
936
1049
1216
1326
1414
1536
1660
1785
1919
1996
2123
2130
2163
2201
2169
2194
2160
2102
2001
1803
1775
1626
1457
1328
1235
1108
909
779
680
578
479
404
365
300
256
230
180
146
141
144
124
111
108
105
101
96
97
99
92
100
96
89
93
99
115
104
105
92
100
94
90
107
95
92
89
93
103
94
90
97
101
98
95
108
96
89
108
96
104
98
117
106
103
99
92
86
92
93
102
93
96
97
97
98
109
100
85
90
96
87
101
79
93
89
93
94
93
94
102
108
99
90
99
105
98
98
107
98
93
99
110
98
95
103
104
97
104
94
89
90
98
110
103
101
110
113
98
91
98
101
100
105
110
113


2024
3
9
13
49
27
0
1
Ni
XPS

1486.7
300.0
1E37
1E37
1E37
1E37
FAT
50.00
5.0
2.800
1E37
2400
1200
1E37
1E37


-1
kinetic energy
eV
596.7
0.100
1
count rate
c/s
pulse counting
0.200
40
70E-9
1E37
1E37
1E37
0
501
11919
16069
13647
13448
13391
13419
13520
13631
13532
13584
13543
13369
13485
13552
13476
13360
13527
13511
13497
13629
13481
13485
13526
13500
13481
13510
13493
13402
13529
13442
13626
13593
13495
13595
13526
13563
13615
13528
13557
13574
13587
13465
13555
13475
13602
13555
13611
13745
13688
13672
13659
13660
13693
13509
13619
13814
13778
13682
13830
13835
13822
13828
13781
13821
13957
14052
14015
13889
13999
13950
13728
13833
14061
14101
14113
14076
14022
14193
14107
14051
14005
14209
14110
14245
14178
14430
14323
14147
14118
14096
14225
14421
14660
14374
14368
14205
14334
14396
14253
14398
14350
14414
14395
14371
14271
14176
14233
14408
14426
14301
14229
14353
14270
14417
14335
14123
14270
14222
14212
14260
14215
14255
14181
14222
14145
14149
14173
14257
14307
14229
14253
14133
14233
14151
14188
14311
14232
14508
14438
14308
14469
14351
14427
14443
14484
14554
14554
14532
14508
14557
14544
14688
14686
14794
14639
14582
14723
14949
14930
14849
14819
14805
14865
14923
14898
14756
14622
14682
14723
14562
14457
14405
14502
14641
14359
14393
14366
14371
14527
14384
14246
14171
14240
14390
14216
14178
14216
14059
13898
13920
13998
13967
13760
13721
13712
13798
13543
13663
13626
13598
13503
13607
13369
13279
13220
13375
13353
13228
13092
13127
13139
13177
13115
13120
13094
13145
13232
13163
13221
13279
13151
13266
13218
13146
13266
13325
13203
13236
13110
13288
13333
13174
13180
13259
13316
13360
13371
13431
13384
13441
13387
13340
13283
13356
13268
13344
13348
13411
13386
13418
13622
13535
13648
13787
13736
13733
13943
13887
13796
13844
13935
13929
13874
13979
13936
13847
13984
14081
14188
14264
14315
14041
14174
14356
14341
14328
14277
14295
14327
14304
14388
14393
14230
14289
14302
14250
14342
14208
14262
14256
14254
14174
14108
14061
14130
14107
14216
14268
14291
14241
14014
14111
14058
14204
14072
14108
14057
14057
14084
14131
14055
14087
14176
14081
14281
14356
14480
14493
14460
14546
14609
14765
14774
14903
15031
15063
15179
15367
15426
15582
15798
15676
15769
15807
15749
15798
15887
15905
15868
15873
15824
16069
15866
15764
15926
15785
15673
15637
15625
15501
15434
15399
15362
15235
15238
15211
15121
15249
15047
15286
15252
14966
14952
14873
14690
14585
14476
14313
13996
13791
13593
13481
13213
13001
12889
12739
12631
12447
12475
12458
12473
12401
12155
12238
12349
12316
12319
12168
12168
12256
12194
12142
12079
12033
12096
12024
12094
12071
12164
12041
12088
12067
12035
11928
12107
11970
12075
11932
12021
12044
12138
12111
12157
11995
11948
12063
12243
12121
12005
12099
12072
12123
12077
12054
12062
12072
12016
12064
11986
12093
12042
11925
11919
11975
12129
12270
12178
12104
12171
12034
12073
11996
12154
12147
12078
12001
12092
12123
12030
11986
12010
12017
12022
12100
11984
12054
12048
12069
12074
12050
12069
11994
11969
12023
11928
12178
12156
12111
12080
12020
12044
12037
11988
12122
12101
11948
11941
12145
12145
12150
12037
12048
12142
12086
12224
12170
11997
12116
12196
12181
12021
12074
12151
12098
12244
12070
12156
12324
12324
12240
11935
12185
12095


2024
3
9
13
49
27
0
1
O V
XPS

1486.7
300.0
1E37
1E37
1E37
1E37
FAT
50.00
5.0
2.800
1E37
2400
1200
1E37
1E37


-1
kinetic energy
eV
941.7
0.100
1
count rate
c/s
pulse counting
0.200
1
70E-9
1E37
1E37
1E37
0
201
67
3049
220
250
254
248
252
235
224
218
222
217
229
224
228
228
209
185
188
173
205
180
198
193
162
164
167
159
169
161
153
149
144
140
147
143
129
116
127
124
127
114
108
109
116
101
100
87
102
105
113
97
94
98
92
86
107
97
87
96
94
116
86
90
91
104
98
93
88
75
82
88
89
85
89
84
92
93
100
94
96
86
86
88
105
98
99
105
114
128
108
97
99
131
155
150
151
160
183
180
200
229
253
293
334
373
438
464
495
568
683
805
908
1000
1109
1281
1430
1569
1694
1818
2059
2221
2383
2506
2694
2794
2924
2958
3049
3031
2948
2987
2962
2797
2696
2544
2281
2147
2022
1786
1629
1432
1211
1053
917
803
679
585
513
417
322
292
269
246
221
190
170
156
137
152
130
122
123
115
112
102
97
100
99
97
98
87
90
80
84
83
93
90
83
97
99
81
74
87
75
78
84
81
73
82
86
91
83
78
67
89
88
81
88
82
93
93
83
end of experiment
