VAMAS Surface Chemical Analysis Standard Data Transfer Format 1988 May 4




1
Experiment Type: XPS
NORM
REGULAR
6
0
0
0
0
0
6


2024
3
9
15
57
57
0
0
XPS

1486.7
300.0
1E37
1E37
1E37
1E37
FAT
50.00
5.0
2.800
1E37
2400
1200
1E37
1E37


-1
kinetic energy
eV
86.7
0.5
1
count rate
c/s
pulse counting
0.200
1
70E-9
1E37
1E37
1E37
0
2801
1
2242
414
423
402
397
397
392
398
412
416
389
358
392
388
387
391
374
384
382
385
376
379
375
379
377
453
444
426
408
455
457
491
484
454
460
498
457
433
397
430
451
420
414
437
422
377
380
359
404
386
415
426
405
377
393
380
412
373
377
400
396
378
350
376
370
364
370
370
382
378
373
354
367
348
377
359
364
361
359
354
340
353
356
338
321
321
336
355
332
332
330
345
354
344
331
324
305
342
333
316
329
349
325
329
310
310
342
328
350
292
320
294
308
314
286
299
330
342
331
296
321
350
347
297
328
324
311
295
314
291
302
318
312
311
339
320
306
299
295
326
334
299
299
291
315
320
298
303
315
279
318
285
303
297
275
291
292
295
272
296
296
312
283
313
303
312
310
302
285
300
303
309
314
294
306
301
301
310
296
279
277
295
321
313
289
320
304
312
297
312
303
331
307
318
285
286
309
322
321
333
288
299
311
298
283
274
283
302
284
287
297
324
320
279
261
312
307
281
268
298
291
292
293
252
266
263
267
243
282
305
280
268
286
255
270
301
282
275
286
246
270
298
308
270
276
265
258
263
267
280
261
262
273
265
250
255
257
287
263
259
281
268
276
251
247
276
293
279
264
273
294
292
284
273
272
287
254
262
267
282
288
274
292
295
309
283
271
282
287
305
274
274
285
292
299
266
274
290
259
286
290
270
259
285
301
263
286
282
275
294
285
305
275
267
283
287
289
275
288
296
297
299
272
283
298
287
283
271
313
281
292
302
288
286
296
304
280
303
326
297
293
296
295
292
297
317
279
304
294
305
298
276
270
301
291
283
306
274
288
300
311
297
300
293
289
307
276
307
281
271
268
288
288
309
291
309
290
270
285
303
311
294
301
298
320
286
294
295
310
283
291
293
304
321
302
293
270
299
322
314
293
288
286
282
338
315
280
302
298
326
313
312
306
296
272
298
326
311
290
299
290
296
310
296
299
307
285
305
288
301
294
297
247
310
303
293
283
296
290
312
308
323
298
297
296
323
284
322
307
305
310
332
281
321
340
333
315
337
327
318
298
292
323
322
311
291
277
313
292
307
310
312
329
300
318
286
296
321
315
331
319
297
316
336
310
320
304
337
296
286
314
300
318
320
328
320
346
332
336
337
333
322
320
302
323
307
325
308
315
351
312
312
334
342
360
352
326
324
323
314
288
342
331
308
316
320
328
318
305
360
362
324
324
330
321
321
347
344
325
347
304
312
323
340
325
319
333
313
311
319
330
315
329
306
302
342
314
334
340
318
354
371
363
333
334
295
312
349
337
350
340
330
328
317
363
340
346
338
341
340
349
349
352
322
331
333
343
327
341
329
350
338
349
306
345
323
306
342
334
353
356
331
335
330
332
342
360
323
341
341
335
363
363
349
345
353
332
352
332
351
379
362
358
362
350
348
342
369
355
368
354
376
388
375
355
371
356
350
361
367
343
365
348
325
338
376
374
355
335
362
352
307
350
363
360
360
365
347
389
359
365
378
352
382
366
345
370
361
382
345
391
366
381
346
362
344
377
376
368
346
373
392
360
378
360
376
386
373
378
353
367
369
399
378
379
386
395
394
393
386
376
360
355
359
371
376
367
361
349
364
327
365
376
373
378
341
394
377
363
399
399
361
361
363
406
371
337
384
399
374
405
405
404
380
389
358
397
387
397
386
403
390
388
396
408
385
399
369
385
399
420
406
413
378
392
416
410
416
414
385
420
425
410
404
406
417
398
406
418
408
393
452
430
437
400
416
385
402
408
418
408
416
418
429
421
436
454
440
420
447
435
458
413
427
463
484
441
441
460
463
444
458
459
460
381
402
406
418
404
402
428
415
429
385
354
351
376
391
382
378
391
399
384
398
397
395
382
390
418
424
439
469
470
491
510
524
519
520
533
581
610
582
576
551
471
491
481
404
420
419
384
396
350
373
358
346
301
339
331
301
286
300
289
276
254
261
254
273
255
269
263
223
256
232
253
253
249
217
232
233
255
226
268
249
248
246
248
249
244
241
253
259
242
276
248
250
271
246
244
258
244
269
280
278
242
242
213
238
230
227
253
242
243
237
270
229
253
259
227
256
246
253
241
270
248
272
254
231
248
246
266
246
245
275
256
249
255
250
268
263
250
249
240
278
253
246
232
198
230
250
256
250
241
252
251
246
262
241
266
258
253
239
267
240
253
246
266
281
241
240
257
214
222
266
249
252
239
238
263
241
238
246
228
252
270
251
260
263
233
273
260
253
254
273
231
235
254
233
266
244
246
244
237
259
265
265
253
255
276
251
237
265
262
226
231
214
250
268
245
279
252
260
264
239
256
249
241
257
249
253
265
225
253
245
268
270
258
217
263
269
252
243
244
244
257
268
275
254
261
261
276
253
245
250
229
256
282
284
269
279
268
278
244
273
248
228
256
221
232
264
261
249
244
228
232
250
252
243
272
245
234
289
245
258
268
257
279
260
257
286
282
294
267
296
290
266
290
275
251
243
223
223
215
216
208
211
227
229
205
218
228
225
226
247
231
257
241
217
251
219
228
230
220
217
235
243
247
237
231
208
242
237
219
218
232
231
216
231
234
226
269
228
245
254
231
216
210
214
230
238
234
232
228
221
227
210
222
223
236
227
242
222
221
240
248
233
226
211
222
212
217
241
221
226
235
239
211
234
221
214
221
230
215
237
239
233
254
243
205
216
218
231
220
215
223
226
189
208
240
252
215
228
216
234
265
232
239
221
231
241
225
214
232
247
239
258
239
250
238
253
234
225
216
224
220
249
229
208
240
234
230
224
266
255
239
228
241
247
249
232
214
227
244
232
231
241
236
250
230
227
228
220
254
239
236
218
243
217
228
234
235
223
227
232
232
240
204
254
242
227
236
232
248
244
223
220
225
216
218
238
234
210
243
238
224
200
226
229
229
249
234
229
234
237
216
242
210
246
218
242
241
244
259
225
213
238
228
220
228
226
217
225
226
233
234
219
248
229
210
211
225
233
203
210
228
200
227
215
254
238
225
237
213
219
251
238
226
230
209
251
260
229
237
241
231
223
234
240
253
233
220
217
245
233
253
249
228
243
232
244
247
228
249
239
245
238
230
245
232
220
241
262
234
266
251
220
241
230
255
229
251
259
254
241
213
233
212
239
218
246
247
231
237
222
231
235
248
226
247
223
224
220
197
225
229
222
218
235
242
222
230
236
239
234
240
246
242
248
222
227
261
261
212
214
237
241
231
221
243
222
225
231
228
242
238
229
215
238
225
238
233
232
223
245
236
231
263
228
240
249
236
215
238
252
233
230
220
239
234
239
241
234
252
253
229
241
218
240
234
235
228
272
237
254
248
226
243
229
230
218
213
227
238
228
264
264
227
266
242
234
260
256
269
259
237
228
228
246
247
258
252
245
247
221
232
253
258
232
243
238
243
253
231
220
240
249
244
256
271
243
250
250
240
271
250
233
254
244
205
221
224
250
239
228
246
239
260
227
237
222
234
241
255
232
243
237
228
219
254
257
275
235
247
252
238
252
242
248
212
226
278
276
235
248
228
237
231
258
240
237
255
242
215
243
255
261
231
214
231
235
251
246
227
250
237
248
237
239
235
272
230
256
238
219
243
240
249
236
257
263
238
256
262
251
234
255
254
243
245
265
265
243
263
258
235
242
246
254
237
262
231
229
266
255
249
261
236
249
258
251
271
245
263
264
253
268
246
247
232
242
257
256
252
264
241
246
240
218
252
243
259
261
219
243
266
240
245
249
282
251
244
249
299
269
238
247
247
245
236
224
241
278
228
223
252
264
270
252
264
256
311
294
315
310
281
305
306
336
302
328
294
308
302
307
347
308
294
301
255
247
225
226
223
227
211
228
224
223
217
202
200
183
173
171
167
146
136
103
91
80
69
67
66
84
78
73
63
69
66
90
135
182
307
596
1060
1643
2148
2242
1724
1076
511
232
130
89
82
70
76
83
67
68
48
51
64
71
64
62
56
64
64
65
58
54
53
59
64
62
69
60
47
54
56
62
71
75
62
62
61
59
66
62
58
51
38
54
57
58
53
61
59
67
61
75
59
57
64
63
53
46
74
58
69
71
72
78
70
60
65
58
66
58
51
42
57
58
64
53
61
57
46
56
51
47
45
71
56
70
65
78
58
47
46
52
60
54
58
59
47
51
50
65
59
53
62
57
63
70
63
59
64
48
43
67
61
61
69
63
57
60
57
55
56
52
67
73
68
66
64
44
65
65
62
72
62
63
65
61
62
66
55
75
65
63
60
56
68
56
52
54
69
51
45
47
65
60
67
67
72
81
78
67
52
56
51
49
67
59
64
57
73
77
87
95
83
61
75
60
55
56
55
53
57
57
49
49
57
47
52
65
58
49
65
60
65
63
48
60
46
48
57
53
55
46
49
42
63
55
41
50
51
57
66
43
38
51
53
63
45
54
55
51
54
59
61
46
61
47
41
54
47
65
52
60
59
49
47
56
53
48
46
47
54
45
51
48
53
49
55
56
65
54
47
51
55
56
60
41
38
52
56
55
46
57
57
57
31
53
56
57
44
41
61
59
43
57
42
62
67
61
58
56
50
58
52
49
34
47
44
57
45
53
52
51
48
59
50
51
67
57
46
50
53
60
54
59
59
52
62
62
50
55
47
46
56
49
56
72
47
60
41
49
62
50
49
53
55
42
41
39
58
48
44
51
49
46
47
44
50
42
48
54
46
54
45
56
50
53
51
49
49
47
65
60
58
54
50
46
49
56
53
53
58
56
47
60
49
55
60
57
48
56
60
48
36
51
60
59
56
55
58
51
66
53
54
45
46
54
48
51
52
50
49
50
41
45
53
48
53
53
47
44
50
68
55
48
54
57
58
53
38
54
59
41
53
55
60
59
57
47
55
49
51
53
53
43
57
65
65
58
59
62
61
60
46
55
48
49
45
48
55
60
49
50
51
60
56
54
67
60
61
47
52
55
59
67
50
57
48
59
51
44
49
61
59
49
64
68
53
62
57
59
50
48
52
52
53
51
46
57
47
55
53
46
56
48
48
56
53
59
60
55
48
47
56
49
51
57
54
55
61
59
63
50
51
42
46
58
50
56
50
44
52
47
52
47
55
66
53
57
52
59
68
63
51
59
57
52
53
51
47
56
54
56
43
46
41
54
55
53
64
63
53
52
54
66
57
48
56
50
49
46
59
59
52
55
40
61
47
49
56
60
54
52
54
47
44
51
67
69
62
50
49
41
62
50
63
62
58
54
57
62
66
48
51
44
51
55
52
55
56
42
53
64
61
64
57
46
41
53
54
57
61
56
54
47
57
52
62
59
54
65
54
60
65
55
61
60
56
66
65
63
59
57
58
62
60
64
49
54
71
65
64
57
55
53
58
54
48
60
72
63
63
57
64
59
60
53
58
59
66
51
56
52
64
58
74
52
59
53
74
58
56
63
54
63
59
58
67
74
65
61
55
68
68
78
72
59
52
66
71
69
55
64
63
55
67
70
52
53
64
68
64
68
57
57
64
66
60
63
63
81
73
67
58
72
72
65
77
90
83
82
79
83
69
88
72
69
84
96
68
63
60
63
77
68
57
67
72
61
56
58
70
62
59
66
60
45
46
53
50
58
62
60
41
55
54
58
56
74
90
131
177
210
276
322
306
250
198
147
90
82
61
59
48
35
31
55
45
44
43
39
36
37
49
33
43
43
33
34
34
25
36
37
29
48
39
33
39
47
36
35
31
30
44
26
42
35
31
33
50
39
35
33
46
47
53
39
40
41
38
39
53
44
47
47
41
41
53
52
49
41
45
42
48
27
37
39
41
38
27
22
35
28
25
25
25
23
24
20
16
14
9
12
20
12
14
18
10
14
18
18
23
47
81
171
256
323
304
234
146
69
32
12
11
13
15
16
10
12
14
10
13
12
15
15
17
10
15
14
13
9
18
12
15
14
13
13
8
14
10
12
9
12
18
10
10
12
16
15
16
16
11
13
18
18
11
8
15
11
14
14
9
11
12
10
16
18
20
15
12
11
13
11
11
15
16
22
18
19
15
17
12
9
9
19
18
12
12
14
9
15
10
13
11
8
16
8
12
8
8
13
7
11
13
13
9
16
17
14
14
14
17
10
20
15
13
9
12
15
12
9
12
16
10
15
18
11
10
8
10
12
17
11
14
11
8
6
9
10
10
13
8
13
13
12
11
11
14
11
16
11
12
13
18
21
20
19
27
30
35
38
61
52
45
34
43
29
19
18
10
7
1
1
3
1
1
4
2
4
2
2
7
9
8
8
10
13
11
11
10
8
9
8
6
12
4
15
14
13
12
15
11
12
3
6
5
4
4
1
1
2
4
3


2024
3
9
15
57
57
0
1
O
XPS

1486.7
300.0
1E37
1E37
1E37
1E37
FAT
50.00
5.0
2.800
1E37
2400
1200
1E37
1E37


-1
kinetic energy
eV
941.7
0.100
1
count rate
c/s
pulse counting
0.200
2
70E-9
1E37
1E37
1E37
0
201
110
4584
354
379
386
367
345
351
352
338
334
354
359
341
308
327
311
319
285
283
297
306
288
286
291
268
251
249
228
222
221
229
208
208
214
205
209
218
187
176
189
181
157
159
140
133
177
171
155
130
131
150
150
126
141
133
142
162
151
138
147
132
130
150
159
141
157
147
140
131
145
142
133
140
128
133
136
141
147
126
138
147
143
146
139
149
155
142
149
136
157
155
159
169
167
185
190
205
228
243
255
284
345
353
418
446
492
575
667
763
885
1016
1090
1211
1382
1577
1820
1971
2209
2383
2718
2938
3217
3402
3650
3897
4054
4159
4358
4483
4584
4427
4387
4313
4165
4109
3912
3659
3394
3061
2790
2539
2241
1977
1695
1454
1277
1121
942
772
626
544
449
398
370
332
266
287
251
221
209
199
203
192
176
171
164
150
151
163
171
150
149
138
148
145
142
142
140
142
130
127
132
138
137
124
126
139
132
120
126
129
129
121
128
122
137
142
126
110
121
115
128


2024
3
9
15
57
57
0
1
c
XPS

1486.7
300.0
1E37
1E37
1E37
1E37
FAT
50.00
5.0
2.800
1E37
2400
1200
1E37
1E37


-1
kinetic energy
eV
1211.7
-0.100
1
count rate
c/s
pulse counting
0.200
10
70E-9
1E37
1E37
1E37
0
201
460
579
515
530
517
505
530
533
515
535
536
542
543
555
526
512
520
545
540
551
570
557
513
522
537
523
523
527
523
537
521
519
559
532
519
538
564
510
491
536
527
511
497
502
481
507
519
525
512
548
509
516
534
529
541
522
560
550
540
544
536
574
558
512
527
543
531
542
537
517
521
542
524
503
534
541
501
513
517
546
538
534
540
527
521
516
501
532
551
517
551
555
542
536
565
542
561
572
531
536
579
555
526
558
538
517
520
539
535
545
546
520
513
514
508
536
568
560
540
552
562
533
541
538
526
532
537
551
544
532
536
524
509
510
513
514
559
544
537
545
521
526
520
532
512
481
497
531
549
514
503
507
525
548
504
485
499
492
522
498
500
505
528
525
530
496
517
525
541
544
532
528
535
529
539
512
533
535
514
525
519
526
518
498
487
529
531
518
503
472
460
494
504
510
500
510
514
506
518
524
508
501
544


2024
3
9
15
57
57
0
1
Si
XPS

1486.7
300.0
1E37
1E37
1E37
1E37
FAT
50.00
5.0
2.800
1E37
2400
1200
1E37
1E37


-1
kinetic energy
eV
1376.7
0.100
1
count rate
c/s
pulse counting
0.200
5
70E-9
1E37
1E37
1E37
0
201
47
1599
87
72
70
73
77
74
81
73
76
68
65
79
81
74
76
80
70
62
73
72
74
73
76
72
58
55
71
71
82
82
83
72
80
65
73
80
73
77
83
85
89
91
94
89
114
141
131
141
169
155
181
227
277
287
352
420
468
500
599
665
780
830
868
964
1100
1159
1293
1331
1425
1486
1514
1569
1599
1596
1556
1585
1599
1507
1385
1305
1239
1159
1073
958
867
727
602
574
497
443
369
302
256
222
185
151
128
120
105
102
94
89
94
75
82
58
76
64
79
73
61
65
72
64
60
64
71
75
58
75
69
64
69
72
70
66
65
61
65
67
62
65
54
57
69
66
62
65
75
57
52
69
76
60
56
63
58
61
67
58
64
65
68
53
64
56
51
63
60
64
67
66
63
64
56
58
62
65
65
61
47
61
59
52
64
63
63
59
64
58
65
64
56
64
70
64
64
64
62
64
71
74
71
61
63
70
68
59
58
64
60


2024
3
9
15
57
57
0
1
Ni
XPS

1486.7
300.0
1E37
1E37
1E37
1E37
FAT
50.00
5.0
2.800
1E37
2400
1200
1E37
1E37


-1
kinetic energy
eV
596.7
0.100
1
count rate
c/s
pulse counting
0.200
40
70E-9
1E37
1E37
1E37
0
501
9408
12253
10816
10622
10645
10612
10709
10755
10818
10754
10686
10599
10612
10748
10850
10620
10685
10579
10509
10659
10723
10771
10692
10680
10738
10586
10831
10824
10632
10774
10788
10644
10799
10963
10886
10699
10700
10786
10722
10799
10708
10786
10819
10702
10663
10689
10716
10739
10842
10853
10874
10757
10808
10893
10848
10804
10728
10809
10979
10960
10836
10861
10880
10791
10896
10850
10894
10908
10927
10936
10832
10862
10870
10823
10748
10784
10868
10759
10812
10826
10819
10842
10866
10965
10834
10907
10907
10950
10871
10753
10901
10890
10803
10780
10921
10843
10801
10949
10748
10823
10881
11018
11054
10840
10928
11109
11083
10938
10814
10824
10944
10955
10870
10963
10939
10962
10871
10864
10822
10953
10865
10850
10788
10635
10731
10811
10863
10903
11001
10919
10899
11019
10973
10744
10913
10913
11059
11044
10952
11047
11027
11025
11115
11046
10933
11066
11104
11018
10957
11009
11006
11086
11117
11188
11051
11065
11029
11164
11182
11083
11092
11127
11233
11177
11157
11198
11174
11238
11243
11078
11143
11284
11192
11152
11078
11121
11090
11194
11178
11062
11122
11193
11440
11259
11124
11146
11212
11312
11371
11239
11257
11432
11366
11348
11360
11274
11408
11348
11361
11333
11252
11174
11006
11066
11117
11161
11045
11036
10960
10946
11034
11056
10956
10868
10784
10805
10961
10886
10794
10660
10759
10845
10825
10648
10602
10615
10682
10654
10541
10641
10558
10440
10344
10449
10479
10577
10519
10510
10463
10526
10440
10394
10409
10366
10413
10469
10363
10530
10541
10636
10541
10418
10262
10426
10481
10486
10548
10488
10591
10480
10471
10522
10585
10694
10685
10705
10616
10697
10634
10721
10699
10680
10627
10727
10734
10748
10726
10772
10817
10712
10702
10875
10746
10784
10875
10753
10664
10681
10747
10810
10781
10766
10743
10635
10623
10666
10856
10860
10901
10626
10878
10819
10603
10706
10838
10658
10682
10654
10616
10699
10638
10683
10649
10550
10663
10824
10667
10726
10801
10960
10934
10906
10779
10884
10938
10981
10843
11075
10994
11099
11266
11244
11125
11258
11328
11453
11527
11407
11466
11451
11465
11607
11555
11299
11367
11353
11532
11514
11467
11472
11531
11476
11402
11398
11499
11720
11759
11759
11738
11682
11726
11844
11983
12050
11971
12145
12253
12136
11970
12025
11897
11714
11645
11544
11470
11327
11291
11214
11150
11063
11021
11199
10976
10934
10999
11000
10915
10898
10841
10735
10729
10536
10384
10430
10373
10327
10248
10025
10222
10023
9928
9941
9963
9714
9622
9707
9841
9736
9595
9482
9530
9627
9561
9606
9619
9723
9575
9633
9738
9600
9633
9571
9583
9553
9564
9540
9555
9497
9525
9555
9482
9533
9638
9715
9627
9483
9435
9421
9565
9736
9631
9518
9552
9490
9506
9448
9540
9644
9602
9605
9577
9605
9559
9545
9511
9624
9550
9570
9431
9511
9706
9479
9610
9589
9649
9632
9506
9424
9605
9606
9633
9598
9463
9502
9598
9625
9544
9662
9641
9408
9590
9536
9416
9605
9551
9577
9702
9770
9596
9430
9654
9550
9575
9418
9541
9678
9632
9472
9652
9682
9663
9613
9602


2024
3
9
15
57
57
0
1
O V
XPS

1486.7
300.0
1E37
1E37
1E37
1E37
FAT
50.00
5.0
2.800
1E37
2400
1200
1E37
1E37


-1
kinetic energy
eV
941.7
0.100
1
count rate
c/s
pulse counting
0.200
1
70E-9
1E37
1E37
1E37
0
201
56
2442
193
194
191
212
199
187
208
186
201
178
173
171
176
155
153
174
176
162
176
158
148
136
141
146
140
133
143
146
132
127
97
103
102
114
116
102
106
105
99
85
84
78
86
80
79
80
83
69
82
88
74
67
78
79
81
79
70
66
72
72
82
87
74
71
69
70
74
75
71
73
72
79
69
69
75
68
73
75
74
74
82
80
73
69
83
88
75
78
80
87
88
91
92
103
105
119
122
143
151
178
183
204
221
263
300
310
365
381
469
565
596
683
735
886
1015
1086
1241
1323
1479
1630
1763
1868
1891
2075
2191
2227
2335
2407
2442
2387
2382
2288
2209
2158
2026
1845
1732
1664
1506
1337
1182
1003
911
783
644
567
469
396
355
306
259
232
212
194
184
150
132
115
122
110
97
111
101
93
85
81
92
82
73
73
82
80
75
74
72
76
71
83
90
74
70
78
80
67
61
72
71
56
59
70
77
72
78
77
75
75
70
62
63
58
65
end of experiment
