VAMAS Surface Chemical Analysis Standard Data Transfer Format 1988 May 4




1
Experiment Type: XPS
NORM
REGULAR
6
0
0
0
0
0
6


2024
3
6
15
17
39
0
0
XPS

1486.7
300.0
1E37
1E37
1E37
1E37
FAT
50.00
5.0
2.800
1E37
2400
1200
1E37
1E37


-1
kinetic energy
eV
86.7
0.5
1
count rate
c/s
pulse counting
0.200
1
70E-9
1E37
1E37
1E37
0
2801
0
4391
530
491
514
489
512
513
487
474
493
481
501
527
481
523
466
505
487
513
486
480
496
469
446
486
460
451
484
508
453
446
438
465
479
462
469
474
461
434
428
427
451
445
479
441
441
400
438
422
458
421
440
405
439
431
438
406
414
442
449
426
373
414
417
432
447
424
431
403
409
422
393
397
402
395
368
409
398
403
439
419
397
402
401
369
387
401
405
373
376
358
397
392
367
379
410
387
387
390
388
371
371
368
373
387
382
362
401
395
369
382
376
365
378
397
378
367
356
367
372
391
370
354
390
404
399
353
398
363
367
370
396
371
404
362
380
373
361
340
369
372
361
359
365
388
367
372
360
342
376
365
345
370
372
357
334
349
363
343
363
358
355
367
367
348
328
351
376
355
343
342
355
395
400
382
398
351
320
335
322
357
336
367
363
362
341
349
347
346
368
369
355
353
338
361
363
343
347
360
367
374
353
353
349
363
389
343
340
370
360
352
395
381
368
344
356
365
381
347
361
360
382
358
349
368
374
343
370
402
361
359
355
347
358
363
345
378
397
376
386
358
360
349
351
339
378
362
352
360
354
383
394
351
389
383
354
370
368
378
370
378
350
367
372
362
387
382
353
348
357
379
385
352
345
354
372
367
358
362
376
345
362
369
371
407
359
373
356
362
342
373
380
402
375
380
338
347
371
352
371
384
401
383
373
373
365
361
386
383
376
374
382
372
365
365
386
371
370
381
359
377
402
376
381
387
383
379
377
403
385
403
412
371
356
360
390
364
380
387
414
394
394
389
372
375
385
366
392
410
365
369
364
384
368
373
396
405
430
381
384
396
415
407
415
375
409
413
434
387
380
384
395
373
391
388
380
383
408
401
380
394
370
369
407
397
401
420
379
408
381
397
390
377
375
429
393
396
418
386
393
408
421
400
418
424
412
428
408
425
443
422
384
386
391
384
387
404
429
416
387
404
443
413
400
410
392
393
403
426
418
389
404
415
375
407
443
405
421
426
408
413
382
400
430
376
402
402
405
423
401
456
415
419
402
423
411
432
414
392
408
429
421
407
437
406
426
415
414
417
416
418
406
426
427
410
405
413
419
399
428
425
415
418
451
424
434
459
443
428
398
406
421
373
400
442
417
426
413
434
413
421
439
409
386
386
434
446
403
429
430
443
452
448
450
410
446
447
433
431
455
415
429
400
447
444
434
428
411
450
443
436
451
459
466
441
425
430
424
438
476
439
431
464
437
409
417
465
436
444
462
418
436
457
440
471
468
435
461
428
464
492
447
425
441
462
454
478
437
450
443
449
431
473
458
443
457
485
478
474
453
476
466
478
469
483
444
481
438
441
462
498
477
478
473
483
502
469
454
466
480
477
487
507
464
479
462
466
463
494
469
487
470
469
479
456
481
480
493
475
511
484
487
508
517
485
484
498
502
467
524
496
466
470
476
516
507
508
529
504
479
483
518
487
516
481
497
500
493
494
482
499
509
440
530
513
516
512
512
504
512
488
475
502
487
510
478
513
510
483
549
511
522
530
526
514
485
476
516
480
478
502
487
484
475
533
524
526
503
556
494
532
523
505
516
534
515
500
511
508
575
541
516
523
525
513
529
566
501
529
550
530
505
528
558
535
550
555
512
520
554
548
542
535
547
538
558
554
544
570
535
556
567
497
522
546
514
501
532
563
561
528
523
584
535
537
524
577
578
573
569
626
602
600
586
568
544
532
532
580
576
566
586
595
602
607
578
600
585
600
616
605
593
566
583
574
584
566
555
594
557
603
613
587
651
585
617
633
654
651
587
631
607
645
666
665
647
674
657
655
666
647
622
682
609
631
613
592
568
582
570
585
558
562
550
531
531
532
549
520
569
589
555
568
623
575
535
559
577
582
591
622
671
704
745
761
767
801
836
827
884
968
915
881
840
723
672
634
624
569
554
582
546
503
518
486
452
445
432
428
398
402
401
427
367
315
302
352
345
367
323
313
317
305
318
313
354
317
304
314
332
352
342
321
325
318
321
328
331
360
346
310
334
305
312
346
341
341
344
356
322
321
294
317
329
329
347
333
357
350
344
338
319
336
306
316
333
333
350
333
324
344
317
318
314
339
328
313
306
320
323
350
339
378
366
343
308
344
330
342
353
337
354
341
320
315
327
308
324
309
331
332
341
330
335
349
307
370
317
318
344
305
322
321
322
364
362
314
329
340
340
311
315
335
348
348
333
333
331
320
319
348
323
331
345
334
330
328
345
334
377
341
342
328
347
332
322
307
363
341
292
325
329
331
320
353
360
329
347
323
344
363
339
312
338
341
345
321
334
367
321
348
322
343
366
334
335
329
351
362
347
329
334
346
332
336
347
342
331
341
371
357
362
355
342
375
354
369
340
345
351
364
345
336
351
360
355
343
345
405
356
377
355
361
345
364
372
333
358
338
346
340
335
342
348
367
351
317
320
333
343
360
359
349
352
358
340
355
347
318
346
354
375
377
381
387
354
350
341
365
334
342
355
334
336
349
343
303
350
352
341
322
336
333
306
345
356
348
332
345
334
328
333
309
365
318
327
316
312
334
324
344
339
338
324
319
346
326
324
331
313
334
346
360
340
333
346
350
344
336
328
345
313
372
349
319
347
337
375
377
341
343
347
338
354
345
314
370
328
342
361
350
361
345
391
356
343
344
320
348
341
334
361
357
356
335
328
323
337
356
340
366
308
357
360
359
344
358
320
345
360
366
360
333
386
344
338
334
315
360
370
364
329
352
331
365
348
338
355
334
373
329
360
337
355
361
356
362
349
374
356
350
348
360
328
353
318
363
362
338
368
352
349
350
345
368
362
370
365
362
359
330
354
351
325
354
353
388
401
357
352
365
381
375
360
384
371
369
343
336
359
351
359
356
354
352
388
346
360
387
355
350
367
350
345
337
365
324
370
364
360
369
331
391
357
387
339
342
371
378
374
357
350
368
358
351
378
363
358
366
350
346
360
340
338
356
370
371
366
371
363
384
366
401
387
378
387
379
365
376
397
366
381
376
398
394
351
344
388
368
366
389
379
350
359
362
348
373
357
350
368
375
376
367
372
384
395
362
365
367
384
358
369
399
374
359
365
389
353
404
352
401
407
396
394
383
408
374
401
364
403
397
393
390
403
412
387
389
368
367
387
411
392
387
414
384
395
396
361
363
360
360
352
366
365
382
395
374
398
376
392
363
339
386
391
367
364
375
382
383
382
395
378
371
331
415
383
381
383
401
379
382
393
357
358
378
379
417
408
402
402
364
384
371
393
392
372
370
360
393
396
363
387
389
402
402
359
405
412
392
372
395
389
397
369
382
406
408
398
409
381
392
385
410
397
385
396
395
406
409
397
398
397
398
388
404
378
368
377
425
413
395
408
409
402
422
396
412
432
396
366
424
404
397
429
398
411
425
389
388
413
401
404
429
421
385
407
441
398
387
419
445
457
414
410
406
376
439
428
400
419
424
436
434
421
390
389
412
461
403
409
419
409
399
407
401
418
440
440
433
431
399
396
379
429
441
432
455
439
424
414
427
432
461
424
430
444
438
437
456
428
462
457
420
420
425
436
450
456
432
422
438
429
443
449
464
424
435
462
441
431
456
430
440
429
455
447
455
442
447
458
465
425
462
420
455
468
472
431
443
432
459
472
466
448
491
423
458
447
454
473
441
474
486
459
436
478
471
485
508
465
473
497
475
455
436
461
492
474
457
476
453
470
474
467
433
479
473
446
477
482
477
494
481
486
489
491
471
463
475
484
487
456
443
458
479
463
423
430
429
437
443
450
421
482
501
494
509
493
499
521
556
522
574
554
550
559
621
565
612
630
639
641
620
619
559
535
538
540
482
456
433
435
410
417
386
396
400
387
389
341
356
326
290
272
248
244
166
156
143
141
117
91
103
104
104
104
117
127
139
169
233
454
858
1665
2841
3935
4391
3922
2579
1252
534
257
157
129
118
113
103
103
97
113
87
89
109
92
93
86
87
107
88
100
91
94
96
100
83
86
94
73
104
99
87
77
92
84
89
88
90
74
82
76
80
88
80
83
90
94
93
88
72
88
92
80
65
75
84
84
104
89
92
89
89
97
99
104
94
93
69
89
83
83
98
100
93
93
86
79
91
87
83
102
77
89
96
106
93
77
82
86
97
81
91
87
88
95
107
93
96
84
87
98
96
89
86
98
77
74
85
92
78
85
93
89
83
81
95
68
85
90
94
102
85
87
79
84
98
89
93
93
75
86
82
86
89
96
102
87
92
91
82
75
102
90
86
92
89
89
85
79
81
89
98
83
82
103
84
84
100
95
84
83
73
86
80
105
87
71
78
84
93
84
114
85
104
91
101
78
89
96
85
111
107
89
91
81
84
88
87
85
76
90
92
101
82
82
90
99
87
101
98
86
77
98
85
100
102
97
73
96
97
85
90
96
99
87
95
91
93
82
89
97
91
98
100
93
105
87
93
82
94
75
99
104
90
85
87
93
84
79
98
86
94
97
100
95
92
101
92
94
101
92
94
68
96
102
90
81
108
96
90
85
101
94
79
99
78
87
87
112
93
93
100
70
79
77
94
94
99
91
81
95
93
90
98
107
104
82
88
98
90
93
93
84
94
93
92
92
96
99
102
91
96
93
101
91
95
100
81
102
83
90
96
102
88
87
115
105
99
88
98
87
96
88
80
95
99
100
104
89
94
92
86
117
94
98
101
95
96
89
101
84
91
99
96
99
94
104
101
103
92
79
90
76
82
97
95
98
80
85
95
98
83
93
100
82
90
83
87
89
99
92
101
100
92
92
74
84
94
85
105
105
94
90
83
95
117
96
95
111
96
92
98
98
100
94
95
94
93
87
99
95
114
94
114
93
81
99
90
87
99
88
100
108
100
110
101
101
102
96
115
95
106
101
92
91
77
85
92
107
105
100
94
102
98
88
92
104
101
108
115
104
107
105
99
105
109
94
89
86
89
94
99
101
88
82
95
100
101
110
110
102
113
104
99
95
97
97
85
99
101
98
102
98
107
106
100
88
106
105
111
108
91
89
97
104
104
95
107
97
97
92
102
110
114
114
95
88
100
104
84
101
117
92
93
109
100
100
115
97
103
97
101
107
124
106
102
98
93
98
95
85
94
94
99
100
105
96
98
94
90
97
105
102
101
112
119
104
95
100
103
100
106
113
102
99
99
101
108
87
102
103
103
110
91
98
95
105
103
92
103
101
108
118
107
91
84
90
94
90
111
110
95
105
110
94
87
116
114
107
104
101
107
114
94
96
92
94
127
126
105
111
98
98
100
108
106
130
99
94
104
106
110
117
101
107
109
112
111
104
99
107
109
117
113
119
103
92
98
103
99
117
112
107
103
115
113
108
114
111
119
95
101
101
104
119
109
121
150
123
96
93
110
116
106
101
107
119
113
102
117
110
103
97
109
115
122
131
116
102
102
110
113
107
125
123
110
127
122
108
122
121
122
114
123
124
123
111
117
119
131
126
124
116
111
128
128
115
116
125
126
105
119
108
101
124
116
113
156
123
131
123
126
136
133
152
161
163
156
143
149
162
148
144
127
142
153
137
123
129
123
119
118
115
117
123
119
119
124
116
112
115
109
101
92
89
92
92
97
89
93
87
79
90
69
83
79
92
112
140
184
224
337
457
567
635
581
433
319
218
165
126
122
94
97
79
96
71
73
75
72
62
78
70
70
80
69
73
81
86
67
90
65
72
68
70
66
66
72
61
65
62
67
71
78
67
67
74
75
76
76
74
74
67
82
72
79
89
90
84
88
75
69
87
80
88
90
85
90
90
87
72
76
69
60
65
81
67
53
56
54
62
67
49
56
40
36
31
31
24
15
23
19
24
20
26
16
19
21
14
22
35
65
147
263
470
613
687
576
368
221
83
37
26
17
31
24
12
18
20
24
21
22
26
18
21
22
28
21
17
35
22
16
20
28
19
16
25
19
16
23
25
21
13
18
19
20
15
13
25
22
18
25
23
19
21
25
23
24
20
23
22
23
24
21
19
27
21
25
22
16
16
22
16
18
26
19
21
22
15
27
34
22
19
17
26
14
18
19
26
29
23
32
19
25
21
23
23
21
25
23
22
21
25
20
24
25
22
43
23
26
27
33
31
25
26
36
22
25
25
18
26
28
23
24
23
24
23
17
16
22
18
23
20
17
19
19
18
23
20
18
19
11
18
19
17
18
18
14
13
20
24
30
24
23
25
44
48
52
58
83
88
100
108
107
89
55
52
26
21
9
3
4
2
3
3
4
3
3
2
2
7
9
17
24
24
11
21
14
16
19
27
15
12
13
17
19
22
29
27
21
14
10
8
7
3
0
0
2
0
0
1
2
1


2024
3
6
15
17
39
0
1
O
XPS

1486.7
300.0
1E37
1E37
1E37
1E37
FAT
50.00
5.0
2.800
1E37
2400
1200
1E37
1E37


-1
kinetic energy
eV
941.7
0.100
1
count rate
c/s
pulse counting
0.200
2
70E-9
1E37
1E37
1E37
0
201
173
9174
664
606
629
650
661
657
659
613
565
581
589
567
576
561
551
537
521
509
511
490
448
435
440
446
450
412
391
378
361
323
349
342
311
273
286
297
264
246
238
256
255
235
218
230
220
219
222
219
226
209
203
202
208
232
216
212
209
204
211
202
198
194
218
203
224
225
212
206
202
198
194
199
211
230
235
228
215
202
201
222
220
240
246
233
242
246
251
269
258
284
296
339
357
370
423
461
469
565
636
731
800
952
1144
1237
1428
1637
1873
2188
2500
2828
3127
3560
4076
4537
4856
5361
5903
6339
6867
7396
7905
8288
8529
8823
9047
9166
9174
9066
8844
8503
8146
7706
7228
6668
6179
5513
4776
4209
3692
3145
2674
2347
1893
1586
1327
1088
929
755
642
551
502
439
392
365
330
311
279
295
265
244
243
232
245
235
240
226
225
232
222
222
230
216
201
210
220
205
205
199
199
196
185
196
216
213
194
196
207
216
206
186
203
198
201
180
177
194
188
201
173
178
199


2024
3
6
15
17
39
0
1
c
XPS

1486.7
300.0
1E37
1E37
1E37
1E37
FAT
50.00
5.0
2.800
1E37
2400
1200
1E37
1E37


-1
kinetic energy
eV
1211.7
-0.100
1
count rate
c/s
pulse counting
0.200
10
70E-9
1E37
1E37
1E37
0
201
928
1094
947
991
965
977
1001
1003
1012
975
975
980
990
1009
1051
1030
1008
1031
1003
1013
1028
988
1007
987
1001
973
1008
1041
1015
1002
989
994
992
981
1013
979
991
991
968
974
957
964
992
1016
1055
1002
974
995
1035
1035
1039
999
1000
962
928
991
1023
976
998
954
980
978
993
973
998
955
993
1010
1001
961
958
942
947
970
1022
1006
959
1003
998
1002
990
1014
986
995
999
991
1015
1008
1037
1009
957
976
1047
1016
996
1001
978
1022
1024
1047
974
995
999
1042
1002
1031
1094
1090
1021
1041
1074
1065
1070
1001
1046
1050
993
1005
1022
1031
983
993
1014
1034
1020
1031
982
981
950
972
976
950
988
962
981
993
942
938
964
940
1007
1051
982
969
974
954
966
982
978
954
981
966
940
1011
991
968
997
975
975
993
1008
1026
996
990
996
1025
1000
978
969
978
995
990
1040
1041
983
939
1001
1022
998
943
981
998
967
977
1007
989
994
1019
1070
1049
1032
999
1003
1024
963
975
1017
966
982
1014
986
1026
1058


2024
3
6
15
17
39
0
1
Si
XPS

1486.7
300.0
1E37
1E37
1E37
1E37
FAT
50.00
5.0
2.800
1E37
2400
1200
1E37
1E37


-1
kinetic energy
eV
1376.7
0.100
1
count rate
c/s
pulse counting
0.200
5
70E-9
1E37
1E37
1E37
0
201
88
3470
102
98
98
92
100
97
103
103
107
98
95
102
100
100
100
103
96
98
99
110
111
98
103
110
114
102
108
111
106
112
110
107
112
120
115
118
127
120
128
141
167
175
189
221
234
281
315
364
453
499
552
667
770
895
1016
1213
1353
1527
1718
1923
2094
2322
2563
2724
2947
3088
3230
3293
3381
3414
3470
3412
3324
3287
3167
3053
2866
2619
2469
2177
1927
1742
1525
1312
1106
981
830
682
592
480
441
358
276
238
201
178
149
131
129
129
136
133
112
115
110
104
121
114
111
106
111
101
102
95
108
104
107
106
130
120
106
109
109
110
107
99
105
104
95
98
104
107
103
92
99
112
101
104
107
110
115
126
117
100
110
103
106
98
106
102
102
94
118
97
88
100
115
114
111
96
108
105
103
121
121
99
94
104
104
106
111
104
101
107
105
103
98
107
104
108
110
104
107
106
100
99
113
117
113
115
113
115
108
103
102
119
116
108
93
92
111


2024
3
6
15
17
39
0
1
Ni
XPS

1486.7
300.0
1E37
1E37
1E37
1E37
FAT
50.00
5.0
2.800
1E37
2400
1200
1E37
1E37


-1
kinetic energy
eV
596.7
0.100
1
count rate
c/s
pulse counting
0.200
40
70E-9
1E37
1E37
1E37
0
501
12196
14327
12822
12662
12694
12591
12684
12727
12720
12611
12773
12729
12693
12705
12791
12844
12728
12847
12767
12789
12711
12700
12781
12840
12873
12763
12758
12772
12668
12876
12813
12779
12843
12838
12792
12948
13013
12816
12650
12838
12879
12880
12703
12872
12971
12861
12763
12806
12830
12762
12896
12905
12885
12936
12872
12858
12883
12816
12872
12953
12897
12838
12742
12812
12790
12692
12749
12870
12943
12946
13011
12897
12798
13009
12908
12891
12684
12746
12946
13002
12979
12943
12917
12929
13097
13098
12836
12884
12929
12774
12744
12909
12795
12985
12738
12631
12771
12804
12834
12839
12763
12776
12728
12956
12828
12894
12901
12950
12691
12695
12783
12969
12753
12684
12823
12852
12909
12827
12742
12917
12916
12844
12879
12908
13002
12908
12962
13009
12811
12938
13128
12987
13053
12870
12946
12891
12943
13076
12911
12847
12718
12915
13014
13015
12932
12855
12897
12919
12882
12939
12945
12853
12906
13002
12903
13020
12978
12905
12973
13059
12925
12963
13016
13014
12967
12969
13091
13043
13180
13075
12957
12947
13104
13261
13161
13167
13227
13270
13239
13218
13255
13356
13290
13525
13482
13499
13509
13409
13499
13342
13325
13315
13383
13492
13330
13152
13187
13216
13067
13114
13066
12982
12999
13087
12997
13062
12884
12915
13004
12892
12804
12845
12919
12756
12910
12812
12790
12747
12568
12608
12728
12933
12627
12728
12669
12626
12762
12674
12753
12809
12762
12664
12662
12749
12864
12736
12754
12853
12751
12897
12867
12730
12609
12825
12962
13069
12950
13027
12971
12913
12863
13039
12990
13068
12973
12909
13007
12905
12865
12860
12857
12861
12740
12923
12854
12815
12811
12828
12893
12744
12737
12796
12878
12744
12815
12866
12885
12951
12831
12794
12918
12873
12892
13073
12793
12746
12611
12626
12688
12759
12829
12854
12824
12881
12762
12778
12890
12862
12908
12929
12860
12718
12720
12914
12932
12907
12806
12948
12797
12888
12747
12799
12928
12826
12775
12862
12951
12789
12771
12824
12742
12811
12863
12827
12915
12844
12838
12751
12654
12763
12847
12981
12796
12803
12866
12920
12860
12889
12851
12879
13017
13018
13050
13112
13193
13151
13272
13310
13488
13522
13559
13534
13821
13749
14013
13971
14064
14082
14129
14250
14327
14233
14164
13914
13810
13868
13902
13632
13428
13409
13240
13366
13119
12998
12755
12854
12885
12697
12608
12536
12503
12452
12486
12392
12598
12443
12406
12241
12196
12453
12350
12455
12333
12485
12479
12355
12307
12446
12282
12373
12448
12402
12359
12250
12427
12466
12502
12390
12395
12440
12468
12394
12263
12335
12359
12381
12381
12472
12498
12447
12477
12523
12239
12279
12427
12401
12471
12447
12362
12405
12413
12508
12559
12353
12381
12252
12207
12245
12351
12350
12542
12474
12243
12266
12318
12444
12508
12506
12476
12437
12473
12504
12501
12530
12547
12525
12262
12257
12292
12376
12438
12495
12289
12333
12477
12410
12411
12460
12482
12336
12307
12354
12349
12480
12464
12345
12501
12459
12596
12454
12471
12518
12444
12452
12453
12395
12541
12466
12319
12444
12556
12427
12473
12483
12443
12532
12380
12537
12428
12374
12388
12422
12441


2024
3
6
15
17
39
0
1
O V
XPS

1486.7
300.0
1E37
1E37
1E37
1E37
FAT
50.00
5.0
2.800
1E37
2400
1200
1E37
1E37


-1
kinetic energy
eV
941.7
0.100
1
count rate
c/s
pulse counting
0.200
1
70E-9
1E37
1E37
1E37
0
201
72
4120
304
313
314
324
315
282
282
308
309
302
288
266
278
280
271
255
259
267
257
254
233
212
214
203
194
196
180
182
174
192
160
148
143
137
131
135
136
123
128
138
136
127
111
111
109
107
113
106
123
118
101
98
113
93
93
96
101
105
98
91
99
110
113
101
81
84
107
100
98
95
72
85
100
98
95
98
112
102
97
106
105
94
104
102
108
117
115
127
121
126
138
138
145
171
185
191
231
254
303
315
345
412
445
480
565
633
772
886
990
1122
1296
1473
1602
1763
1991
2195
2419
2556
2857
3007
3172
3450
3566
3701
3873
3997
4120
4070
3965
3962
3856
3809
3663
3512
3216
2920
2745
2588
2358
2083
1812
1595
1412
1233
1053
854
706
625
547
472
359
304
269
220
208
192
153
174
158
145
143
125
107
118
114
120
95
109
114
130
118
118
94
107
105
103
111
95
86
81
89
97
97
95
94
94
100
91
104
107
88
83
88
91
83
77
83
97
97
85
97
end of experiment
