VAMAS Surface Chemical Analysis Standard Data Transfer Format 1988 May 4




1
Experiment Type: XPS
NORM
REGULAR
6
0
0
0
0
0
6


2024
3
1
16
59
55
0
0
XPS

1486.7
300.0
1E37
1E37
1E37
1E37
FAT
50.00
5.0
2.800
1E37
2400
1200
1E37
1E37


-1
kinetic energy
eV
86.7
0.5
1
count rate
c/s
pulse counting
0.200
1
70E-9
1E37
1E37
1E37
0
2801
0
2697
359
352
364
392
354
348
364
364
358
345
360
365
351
340
347
363
370
368
343
316
330
329
362
331
353
354
314
344
327
333
343
346
342
332
332
339
360
337
364
327
313
321
308
321
328
353
311
326
318
334
281
318
316
311
338
335
316
319
317
306
331
314
299
310
296
329
307
300
275
290
305
282
272
280
279
283
307
282
301
303
303
286
288
304
286
266
300
291
298
293
312
302
288
297
271
258
299
303
283
270
279
270
247
295
297
279
286
317
273
277
279
251
279
284
283
301
290
281
279
270
289
280
263
310
282
282
291
278
262
265
269
280
249
281
285
280
271
312
281
255
277
266
273
280
262
277
297
273
269
262
278
273
282
271
286
270
283
262
272
280
287
304
279
279
269
290
282
278
284
285
256
249
287
274
268
288
258
260
249
273
277
280
303
278
257
259
265
296
292
284
273
278
266
268
303
274
281
279
293
295
275
272
268
306
294
280
280
271
271
267
244
259
280
294
284
261
293
300
300
280
246
266
284
302
264
263
281
285
277
285
268
282
275
283
269
289
275
290
287
282
267
260
264
251
280
303
278
272
270
272
304
298
266
275
255
264
290
280
258
267
278
259
286
285
281
263
286
285
246
292
280
293
277
292
305
278
304
280
310
288
281
264
309
294
287
292
281
287
270
281
239
291
277
286
261
274
258
299
279
274
300
315
297
264
317
321
308
308
290
285
293
270
296
306
290
292
275
282
303
307
291
292
295
304
292
306
276
302
278
279
324
286
278
291
286
298
290
278
307
330
309
310
318
327
292
311
293
314
287
290
320
312
325
327
293
310
321
309
291
322
297
308
295
297
266
286
334
294
306
289
273
313
289
293
296
303
306
294
261
310
289
287
291
324
298
319
306
308
325
292
316
301
306
296
277
318
319
309
290
318
309
299
333
311
314
328
304
313
311
336
299
310
311
291
336
324
308
323
307
296
322
298
333
311
333
320
326
319
311
318
313
317
315
290
297
307
299
332
340
326
352
352
327
309
319
326
307
307
327
290
341
337
329
307
316
343
291
322
358
335
336
336
327
337
347
324
327
331
344
345
341
332
357
337
322
335
356
327
358
335
359
350
334
357
319
313
358
324
320
306
341
354
333
324
331
370
348
290
340
319
343
366
339
336
357
355
355
341
344
366
346
372
369
351
361
369
359
353
348
374
365
355
358
367
339
350
360
353
383
347
370
348
365
354
340
364
369
366
354
349
335
357
361
353
364
342
346
384
376
374
353
379
342
348
397
393
399
384
372
370
346
363
397
412
388
366
357
377
377
366
366
374
360
379
380
354
344
371
380
349
378
367
363
397
381
371
385
370
365
399
361
386
398
379
365
387
405
398
415
369
393
388
387
395
391
401
372
371
378
377
392
405
367
419
408
417
383
361
381
422
392
394
373
380
427
405
380
393
374
396
407
411
407
362
387
408
359
431
399
405
389
373
390
373
404
394
413
404
378
407
417
402
411
415
413
419
433
419
422
418
409
415
407
410
445
425
406
423
401
419
453
431
444
452
407
420
422
415
430
421
443
427
418
411
391
413
423
409
407
407
411
439
403
409
418
455
443
451
437
451
413
416
385
416
430
440
456
462
455
453
419
386
389
457
471
439
463
458
465
458
423
428
461
437
462
459
436
458
438
429
451
435
465
478
459
478
452
463
485
485
424
471
437
493
483
473
496
462
463
489
492
469
476
463
462
465
484
490
484
488
488
497
502
502
503
488
469
502
482
470
467
505
496
470
473
502
508
493
519
494
476
482
477
486
498
509
530
495
511
531
528
509
516
565
559
552
512
552
608
567
527
542
522
498
479
469
508
512
480
460
469
502
453
468
457
463
395
434
452
445
464
470
536
459
458
498
484
480
529
499
532
560
541
611
622
624
674
679
711
711
677
659
656
644
569
552
506
518
495
469
449
431
435
390
403
394
350
372
385
355
357
356
330
352
297
286
290
313
268
276
311
293
295
299
310
286
308
319
316
295
296
291
251
298
283
311
296
279
305
286
297
293
316
308
305
276
293
275
268
286
279
313
327
287
297
275
299
315
284
273
301
300
278
274
295
312
303
342
318
306
325
298
289
311
295
303
305
287
293
299
318
300
314
303
297
307
294
296
347
282
274
279
297
271
315
300
291
292
299
272
298
308
311
320
305
309
284
299
287
279
297
310
313
287
311
291
290
287
298
313
316
319
312
309
294
281
319
337
320
306
301
282
309
303
292
288
290
299
292
319
312
294
299
316
324
300
292
289
293
307
303
306
315
318
317
327
311
305
290
293
322
308
284
284
306
342
336
300
304
313
307
286
316
302
291
281
321
328
293
268
311
326
301
309
278
307
294
283
311
323
322
319
340
319
297
308
319
318
303
289
315
304
311
318
309
307
295
322
306
282
303
294
279
295
296
278
299
293
300
285
283
294
302
314
300
304
309
266
284
270
298
286
311
321
317
308
310
302
320
326
307
325
311
299
281
262
273
303
318
272
283
267
256
284
261
261
265
283
287
284
268
253
271
307
269
268
260
265
294
265
248
272
275
252
285
309
286
281
295
281
271
259
318
265
281
300
276
276
295
277
272
272
279
306
299
254
278
297
287
284
287
284
277
269
264
250
263
292
291
264
302
287
287
282
291
293
298
278
252
293
273
266
267
294
258
290
282
263
258
289
271
274
270
264
279
298
294
295
290
290
294
290
290
257
284
289
297
270
270
289
286
260
270
298
280
315
284
297
300
275
293
286
274
287
300
271
281
282
288
296
289
309
303
308
313
309
313
277
270
314
311
295
283
268
279
294
304
288
273
308
311
289
274
308
293
281
315
296
257
292
304
274
299
302
300
291
292
286
264
280
285
275
296
293
275
259
286
296
279
273
288
284
267
270
317
274
276
283
281
296
301
290
275
278
291
275
303
281
339
311
286
292
269
298
301
320
291
280
290
302
278
287
273
294
289
278
272
273
307
305
293
268
273
287
281
290
302
294
316
277
269
304
296
278
289
293
308
324
306
287
292
295
298
304
280
272
296
293
279
288
279
267
303
280
296
264
279
287
299
298
285
297
297
291
282
286
290
304
304
288
285
311
296
316
334
321
293
309
296
284
271
323
301
288
294
327
278
294
301
305
298
274
314
282
275
275
298
309
284
298
290
274
298
280
288
288
297
298
287
276
304
293
298
298
286
264
289
292
286
304
267
273
296
280
289
298
317
293
257
270
292
273
282
300
306
286
280
266
275
284
289
281
293
298
292
317
290
276
281
277
275
281
305
250
256
266
262
280
299
274
290
264
272
292
294
299
301
284
276
258
279
282
305
291
307
301
289
292
280
296
301
281
278
296
306
290
275
315
295
320
295
278
281
302
294
267
311
292
255
294
313
281
300
294
314
301
280
310
296
286
294
316
314
293
286
321
332
323
323
325
314
317
311
311
332
324
342
324
314
322
312
306
291
283
276
307
302
320
296
303
296
290
303
311
274
318
301
271
322
270
290
277
304
290
284
303
319
289
301
291
280
292
294
302
298
287
301
301
298
287
282
285
293
291
320
314
262
305
282
294
305
301
295
285
303
327
306
301
280
322
303
313
295
295
317
295
301
301
300
290
292
274
311
297
283
274
299
309
309
316
294
323
329
326
330
326
304
301
314
321
309
300
328
319
275
293
294
312
321
311
350
318
327
300
330
315
305
320
312
316
310
338
339
332
308
336
341
331
317
329
292
307
320
305
310
317
304
334
303
290
319
316
311
328
306
316
336
333
310
330
346
333
352
336
328
296
282
288
285
277
287
310
319
317
331
339
334
350
358
347
370
370
381
353
402
393
372
352
387
374
402
400
401
394
375
374
340
312
316
302
275
260
277
296
269
294
273
266
260
257
208
203
210
203
169
143
122
105
97
72
92
92
92
83
83
70
78
78
100
159
299
527
999
1630
2274
2697
2556
1893
1054
495
217
113
102
85
75
82
75
66
70
74
80
85
68
57
66
63
64
59
68
66
67
55
54
67
61
70
62
56
72
80
75
81
70
62
68
60
60
80
73
67
70
81
66
89
67
63
64
74
65
86
67
76
67
55
75
74
72
71
67
74
80
67
77
79
72
74
75
63
60
59
80
71
64
69
76
63
63
62
60
64
66
67
68
67
69
71
68
71
67
61
71
74
73
74
60
61
67
76
65
60
56
62
64
64
63
72
65
65
60
61
66
71
72
78
62
72
84
68
72
71
58
61
59
70
65
69
66
67
73
77
70
55
60
63
68
60
67
64
72
67
73
71
77
68
72
69
67
74
69
78
73
66
73
67
73
57
74
58
74
70
62
69
67
68
74
68
63
64
52
69
72
75
64
69
78
63
57
68
60
57
65
76
67
58
64
71
70
72
74
68
71
80
89
77
81
63
63
63
79
78
78
67
72
60
60
72
67
74
58
68
67
76
62
57
72
81
73
68
65
58
60
63
66
76
81
62
69
57
72
67
73
69
69
63
68
64
65
62
75
71
70
62
79
73
67
70
58
69
68
81
70
73
77
66
71
61
70
75
74
64
55
78
72
72
67
64
63
77
70
64
67
80
82
64
68
61
65
59
68
56
61
69
54
64
72
59
73
63
59
58
61
73
63
53
66
66
74
76
67
68
60
61
68
66
62
81
79
71
69
76
72
68
72
84
60
67
77
70
75
65
60
77
64
64
66
80
67
80
79
79
76
61
64
67
58
78
62
63
62
70
67
59
60
73
67
74
71
72
69
60
65
60
66
70
69
72
63
69
77
62
87
76
64
51
75
73
58
75
68
80
64
67
72
65
73
64
72
67
61
68
60
71
75
71
70
66
82
73
83
67
73
65
56
71
68
67
69
66
67
63
83
73
70
67
62
64
70
66
78
89
70
76
78
84
74
69
60
83
76
76
72
85
81
76
71
70
69
51
64
68
77
80
73
66
68
64
63
66
76
69
74
72
79
71
75
70
73
70
74
70
79
66
67
77
75
76
67
62
72
80
82
91
65
69
68
69
68
55
67
64
71
68
78
68
67
56
66
73
77
70
68
71
78
84
69
78
85
105
86
100
114
118
112
106
82
83
68
67
53
59
64
58
54
59
69
76
62
61
70
59
61
70
63
60
54
58
56
55
55
67
58
70
59
75
78
70
70
57
61
62
64
59
58
65
63
71
63
70
76
71
68
59
66
64
64
66
66
75
69
69
69
67
77
75
72
72
63
57
59
70
73
71
78
78
69
80
62
73
73
74
67
73
54
76
83
74
79
69
58
70
68
94
79
66
61
73
64
65
63
59
62
69
70
70
77
66
75
76
60
58
75
72
73
70
63
57
65
65
72
72
75
75
75
69
70
60
59
78
68
45
69
78
73
68
74
70
82
77
74
64
61
62
64
67
82
60
69
80
67
78
79
89
65
75
71
89
71
73
74
70
69
73
71
78
75
70
67
75
71
74
93
86
72
66
67
72
80
82
77
87
72
87
82
67
74
79
83
81
79
73
76
79
71
70
79
71
78
74
82
73
82
81
97
79
77
76
77
83
85
72
74
81
97
81
79
74
92
81
95
89
90
91
75
82
91
81
75
75
66
82
69
81
86
75
76
76
62
77
69
67
64
58
60
61
44
39
60
53
54
53
53
59
58
60
67
76
86
117
148
211
279
320
325
336
296
213
144
106
98
79
60
55
64
62
55
56
37
50
46
44
56
56
42
50
53
51
46
36
44
47
49
49
45
52
40
42
51
46
49
39
35
32
36
37
48
49
42
41
48
44
40
44
52
52
61
51
55
59
59
53
49
54
59
64
63
50
60
44
42
47
53
47
50
60
52
34
30
47
40
27
42
35
25
26
27
22
27
25
22
22
12
20
22
14
17
23
25
18
26
26
63
149
219
328
361
333
241
145
70
38
28
16
12
14
16
22
19
15
18
16
18
22
15
17
16
17
19
20
13
11
15
13
12
22
21
18
12
13
15
11
14
11
17
14
17
13
18
14
12
18
16
17
19
12
20
20
19
14
14
18
15
13
19
18
31
21
15
17
14
13
18
19
19
19
24
23
21
19
20
12
14
11
12
15
10
18
16
22
16
11
18
15
22
16
10
12
11
17
16
17
13
7
19
23
13
17
12
16
25
17
17
20
16
15
19
20
14
16
14
15
12
14
19
18
19
18
14
10
16
12
15
12
12
13
14
13
10
11
9
15
10
11
9
14
13
11
12
14
15
11
16
16
19
16
25
32
35
46
55
68
55
63
48
38
25
17
5
8
6
3
4
5
6
2
2
4
5
6
3
9
16
12
12
11
12
11
15
17
16
9
7
6
14
20
18
15
17
12
14
5
6
4
4
1
2
1
0
0
0
0
0


2024
3
1
16
59
55
0
1
O
XPS

1486.7
300.0
1E37
1E37
1E37
1E37
FAT
50.00
5.0
2.800
1E37
2400
1200
1E37
1E37


-1
kinetic energy
eV
941.7
0.100
1
count rate
c/s
pulse counting
0.200
2
70E-9
1E37
1E37
1E37
0
201
123
5630
469
442
436
441
439
444
426
415
416
391
385
402
401
359
379
393
360
377
381
352
334
342
344
300
289
288
287
272
269
262
262
265
256
251
248
248
213
212
221
213
203
190
189
193
181
191
196
184
167
173
176
174
168
168
168
185
168
176
174
182
169
156
166
170
158
160
165
150
147
153
166
176
172
163
175
179
173
161
160
173
190
184
172
206
218
210
191
201
220
224
235
247
267
279
266
281
321
385
411
453
507
575
694
772
858
1010
1155
1306
1487
1664
1804
2048
2234
2536
2809
3153
3448
3729
4038
4265
4597
4912
5052
5176
5542
5588
5618
5630
5568
5411
5244
5034
4699
4483
4138
3851
3443
3105
2795
2398
2138
1823
1537
1288
1157
930
806
711
580
463
419
386
346
329
279
236
224
235
247
216
194
182
179
198
186
174
167
167
162
158
153
165
162
151
153
161
173
167
160
169
137
144
155
147
134
134
143
133
146
134
148
149
136
138
153
135
141
139
123
123
150


2024
3
1
16
59
55
0
1
c
XPS

1486.7
300.0
1E37
1E37
1E37
1E37
FAT
50.00
5.0
2.800
1E37
2400
1200
1E37
1E37


-1
kinetic energy
eV
1211.7
-0.100
1
count rate
c/s
pulse counting
0.200
10
70E-9
1E37
1E37
1E37
0
201
609
1121
692
698
712
659
644
676
717
688
704
659
683
670
677
672
672
682
685
644
670
692
706
702
663
669
664
665
678
682
673
692
685
737
701
688
673
727
679
699
687
661
687
710
715
714
697
695
703
741
732
700
713
701
710
714
735
743
718
692
678
694
714
736
712
737
732
722
755
759
733
751
767
765
771
798
809
807
773
809
886
891
917
967
993
978
964
961
987
951
955
968
996
969
930
920
981
955
944
998
967
974
1055
1040
1050
1090
1060
1094
1097
1080
1103
1114
1121
1084
1044
1056
1034
1003
975
973
934
887
869
813
769
731
786
772
758
731
704
702
670
649
643
656
659
629
641
682
675
661
681
628
644
662
647
658
653
686
703
672
633
642
661
630
647
609
624
658
682
641
645
659
616
609
632
631
629
643
663
664
664
669
657
628
656
681
611
631
643
638
657
653
638
657
646
669
684
693
682
680
682
620
650
694
681
633
627
659
671
642
656


2024
3
1
16
59
55
0
1
Si
XPS

1486.7
300.0
1E37
1E37
1E37
1E37
FAT
50.00
5.0
2.800
1E37
2400
1200
1E37
1E37


-1
kinetic energy
eV
1376.7
0.100
1
count rate
c/s
pulse counting
0.200
5
70E-9
1E37
1E37
1E37
0
201
58
1921
101
103
112
85
93
97
87
94
87
86
92
88
100
86
75
100
92
86
76
81
86
78
91
92
88
74
83
77
83
87
93
93
75
81
82
88
98
115
119
118
119
131
129
153
181
201
209
232
259
299
343
380
441
497
560
616
688
824
931
1033
1105
1243
1333
1425
1510
1568
1705
1777
1805
1828
1896
1904
1917
1921
1812
1798
1762
1578
1514
1389
1265
1171
1044
952
859
727
637
550
462
419
336
269
271
232
201
174
149
128
108
119
111
95
104
99
81
73
85
96
85
96
86
81
76
82
81
66
75
95
89
82
81
82
95
94
88
76
100
77
84
84
79
86
77
73
79
88
67
58
83
95
82
88
88
85
80
79
82
84
87
83
87
93
91
79
77
63
73
85
89
86
78
72
86
98
97
89
84
81
86
75
86
91
102
99
78
79
88
85
94
92
79
84
85
75
87
84
68
82
85
83
89
89
93
81
81
80
77
79
95
89
83


2024
3
1
16
59
55
0
1
Ni
XPS

1486.7
300.0
1E37
1E37
1E37
1E37
FAT
50.00
5.0
2.800
1E37
2400
1200
1E37
1E37


-1
kinetic energy
eV
596.7
0.100
1
count rate
c/s
pulse counting
0.200
40
70E-9
1E37
1E37
1E37
0
501
10967
13734
12246
12273
12312
12320
12180
12361
12270
12279
12343
12343
12211
12280
12311
12280
12136
12266
12347
12309
12140
12176
12211
12230
12252
12389
12267
12280
12219
12168
12354
12363
12390
12324
12225
12358
12490
12255
12499
12400
12437
12412
12398
12256
12464
12356
12359
12370
12358
12376
12432
12342
12328
12462
12366
12523
12463
12467
12510
12341
12394
12542
12555
12512
12413
12431
12353
12463
12425
12411
12551
12657
12565
12396
12339
12442
12543
12572
12469
12530
12527
12591
12439
12513
12569
12476
12401
12348
12486
12639
12549
12472
12383
12576
12612
12505
12672
12534
12553
12507
12519
12478
12699
12674
12560
12453
12597
12526
12499
12601
12666
12629
12555
12447
12434
12565
12676
12456
12391
12488
12387
12731
12695
12595
12544
12486
12575
12668
12601
12557
12608
12589
12580
12603
12542
12691
12700
12718
12598
12744
12669
12661
12587
12708
12740
12611
12670
12656
12632
12680
12618
12801
12828
12611
12574
12677
12576
12632
12629
12611
12499
12559
12533
12593
12775
12553
12501
12553
12564
12641
12721
12612
12629
12647
12707
12638
12552
12620
12536
12787
12870
12671
12740
12788
12816
12798
12758
12643
12685
12599
12466
12458
12392
12497
12524
12350
12330
12473
12214
12118
12266
12254
12253
12095
11975
12095
12126
12006
11865
11918
11945
12014
12045
12029
12040
11925
11905
11889
11946
11992
12049
11927
11963
12062
12027
11938
11854
11828
11922
11903
11909
12009
11932
12097
11980
11998
11926
12033
11999
11952
11855
11895
12029
11970
11846
11999
11948
11851
12053
12069
12006
12074
12120
12080
12119
12125
12083
12081
12140
12073
12074
12099
11991
12120
12186
12335
12082
12164
12172
12139
12110
12274
12243
12234
12125
11984
12133
12315
12217
12220
12254
12232
12174
12192
12193
12189
12194
12161
12280
12305
12312
12316
12395
12350
12176
12329
12300
12336
12442
12441
12285
12296
12295
12392
12427
12417
12385
12304
12343
12351
12413
12485
12594
12475
12593
12573
12579
12554
12642
12522
12442
12819
12720
12608
12665
12642
12710
12706
12796
12601
12608
12690
12695
12664
12669
12688
12738
12728
12686
12700
12640
12836
12815
12844
12938
12970
12951
13005
13147
13076
13149
13286
13441
13414
13292
13582
13734
13579
13487
13358
13288
13107
13011
13014
12932
12624
12465
12329
12109
12110
12087
11864
11672
11743
11670
11519
11463
11431
11397
11283
11263
11205
11120
11096
11230
11221
11388
11105
11244
11372
11333
11143
11246
11127
11273
11172
11306
11314
11198
11299
11292
11221
11363
11230
11205
11175
11203
11162
11185
11338
11301
11316
11284
11191
11314
11079
10967
11018
11069
11299
11257
11261
11289
11176
11134
11277
11302
11209
11120
11055
11172
11471
11270
11154
11245
11295
11286
11239
11321
11328
11227
11141
11186
11290
11083
11038
11227
11209
11192
11298
11177
11167
11303
11187
11197
11120
11200
11364
11233
11203
11493
11353
11178
11186
11254
11231
11245
11233
11156
11149
11162
11275
11264
11282
11412
11099
11231
11262
11185
11269
11313
11318
11278
11370
11244
11273
11202
11392
11343
11197
11314
11329
11259
11153
11332
11308
11143
11148
11301
11417
11331
11359
11232


2024
3
1
16
59
55
0
1
O V
XPS

1486.7
300.0
1E37
1E37
1E37
1E37
FAT
50.00
5.0
2.800
1E37
2400
1200
1E37
1E37


-1
kinetic energy
eV
941.7
0.100
1
count rate
c/s
pulse counting
0.200
1
70E-9
1E37
1E37
1E37
0
201
59
2800
204
208
226
227
231
217
209
211
219
215
220
193
189
195
200
204
189
182
193
188
165
183
185
172
168
155
147
146
149
136
124
119
108
113
114
113
105
112
105
96
102
100
100
98
86
85
102
96
95
91
80
87
92
87
99
87
84
85
90
92
82
89
80
84
86
81
84
99
88
85
71
78
83
89
89
82
100
104
98
87
97
94
96
99
110
99
86
95
105
102
111
128
126
124
140
164
186
198
225
262
282
308
380
420
468
507
628
679
741
852
951
998
1162
1298
1406
1596
1744
1887
2002
2188
2253
2398
2485
2619
2672
2751
2800
2783
2726
2703
2563
2491
2401
2228
2103
1911
1759
1530
1342
1212
1082
923
770
690
606
502
447
351
291
256
224
203
173
171
144
135
122
131
128
125
99
104
90
77
90
91
84
92
90
82
75
80
70
75
71
82
92
68
60
76
74
77
73
78
87
71
72
70
78
79
82
80
71
59
69
68
70
69
80
68
75
end of experiment
