VAMAS Surface Chemical Analysis Standard Data Transfer Format 1988 May 4




1
Experiment Type: XPS
NORM
REGULAR
6
0
0
0
0
0
6


2024
3
5
10
49
48
0
0
XPS

1486.7
300.0
1E37
1E37
1E37
1E37
FAT
50.00
5.0
2.800
1E37
2400
1200
1E37
1E37


-1
kinetic energy
eV
86.7
0.5
1
count rate
c/s
pulse counting
0.200
1
70E-9
1E37
1E37
1E37
0
2801
1
3255
650
659
668
603
642
655
629
607
605
617
588
620
599
636
615
587
573
581
613
570
632
631
612
588
580
542
573
593
552
559
540
548
580
555
552
531
504
513
533
495
476
483
517
486
498
489
504
480
483
479
457
473
490
470
469
438
461
477
445
472
437
468
478
463
469
456
437
440
439
428
466
490
455
431
453
443
444
457
471
446
438
414
473
453
465
441
428
459
417
407
403
445
446
398
453
418
410
443
403
417
412
400
423
409
431
383
402
403
434
419
418
398
376
383
398
407
411
414
374
408
406
385
401
394
361
368
357
399
392
406
397
376
387
374
400
394
391
406
368
378
411
396
388
392
362
374
384
400
383
366
415
401
430
401
360
381
379
367
362
386
393
384
364
399
366
392
371
373
371
364
407
365
389
368
355
360
387
375
371
354
369
352
385
392
379
406
416
370
408
400
404
394
388
380
393
381
387
389
366
351
356
355
348
343
347
359
376
393
384
365
347
339
376
346
360
349
382
368
355
366
361
370
348
395
364
343
380
379
393
372
326
358
349
381
408
375
363
382
388
367
392
379
391
368
369
370
366
366
360
393
377
378
382
380
376
380
390
355
384
388
363
373
378
381
390
359
378
398
364
380
351
396
379
371
381
407
375
369
388
380
398
368
378
411
404
369
393
392
374
365
353
372
390
400
389
358
361
375
393
360
367
385
366
394
408
399
365
381
391
398
376
348
385
368
370
372
375
385
343
377
380
387
388
391
357
382
390
383
376
368
346
365
370
387
365
385
374
370
352
388
361
403
392
406
374
377
385
379
398
387
399
392
392
369
358
405
426
368
381
388
399
378
379
400
370
379
395
385
389
391
394
383
403
389
414
408
364
383
386
392
389
372
410
397
378
376
397
383
373
369
419
383
392
373
382
365
382
400
403
402
405
399
390
408
427
401
391
396
376
406
423
405
389
403
406
393
390
396
427
383
393
422
423
407
389
403
400
393
411
404
403
413
422
421
417
421
404
385
401
406
381
380
408
435
418
391
391
403
401
404
400
399
420
426
422
406
408
405
441
431
431
424
430
405
448
404
406
425
416
387
430
428
440
408
420
425
418
429
420
392
426
410
425
432
407
432
418
386
415
386
421
418
433
385
377
392
430
433
436
466
427
456
461
453
451
463
442
453
442
428
429
417
443
450
423
389
417
472
415
413
424
429
425
463
435
407
410
449
430
424
449
440
420
415
463
485
457
431
467
447
472
447
417
445
441
425
405
442
446
419
423
432
442
447
428
432
454
445
448
466
462
428
461
483
459
433
483
429
437
439
413
422
451
451
444
440
428
462
438
460
463
458
468
446
418
503
487
466
481
443
444
482
452
459
455
439
452
441
456
453
463
466
485
472
490
478
460
444
433
458
476
457
465
439
459
476
485
469
443
410
473
467
479
513
473
476
494
503
456
472
498
485
501
491
470
477
498
503
466
489
465
493
468
486
499
491
485
460
435
506
495
484
495
494
479
504
469
484
489
476
454
480
488
522
499
477
449
434
489
484
473
486
498
460
480
479
485
467
492
504
520
484
514
521
489
517
480
523
490
466
514
482
468
478
509
502
487
481
457
489
523
534
510
522
476
509
494
488
514
518
501
497
488
521
478
541
509
484
535
540
519
534
499
482
478
495
502
492
502
533
522
520
479
566
503
520
513
529
491
532
519
527
565
570
516
506
533
508
544
532
551
537
567
547
564
575
565
571
548
550
554
549
558
549
524
552
526
566
572
585
564
565
532
546
514
520
518
574
596
546
575
574
538
578
586
588
571
608
564
568
599
583
603
581
608
610
589
636
653
614
651
585
543
589
544
535
538
557
524
537
520
516
551
503
508
482
525
536
515
535
537
537
557
503
517
566
570
556
585
605
632
640
642
677
730
734
717
799
795
818
805
779
719
684
673
605
594
563
546
561
493
475
488
477
438
440
433
423
417
394
399
358
328
356
316
342
326
346
325
326
362
336
350
341
320
331
318
326
318
309
336
317
323
337
341
316
331
333
367
334
356
351
373
327
342
344
333
323
317
349
354
346
342
336
295
313
342
308
324
329
317
326
341
329
337
335
333
339
324
321
337
341
337
357
339
351
344
351
333
337
347
325
339
320
344
355
329
341
345
329
341
318
326
349
341
354
350
370
366
338
363
345
352
346
344
343
336
320
339
332
338
327
351
366
349
336
362
348
375
327
360
322
364
375
355
323
319
376
359
331
357
371
318
347
352
334
371
334
375
384
352
347
360
338
334
342
360
349
349
337
353
330
387
349
372
356
343
369
368
343
355
354
308
339
345
352
351
371
377
362
361
314
351
361
368
377
355
370
392
348
393
370
344
357
367
351
374
359
352
383
339
357
372
405
343
378
343
360
388
396
375
373
382
368
380
339
403
405
382
389
358
387
355
352
342
346
343
354
362
355
363
347
334
342
334
320
331
357
358
360
369
361
352
355
334
332
356
339
369
360
388
436
421
387
383
397
394
366
376
329
324
300
287
342
308
306
319
313
339
335
307
314
315
352
332
310
325
339
351
335
300
349
331
313
328
301
325
343
288
305
306
332
325
338
333
319
315
322
324
321
342
345
362
304
327
321
321
322
328
352
348
331
344
349
316
314
313
310
319
303
331
322
358
325
351
342
355
325
329
321
356
308
300
299
307
334
304
327
315
288
332
327
358
358
355
318
333
332
337
324
303
336
354
316
331
318
331
330
343
334
329
359
326
346
310
315
288
352
335
353
357
350
339
339
358
324
315
322
332
331
331
319
331
342
341
350
367
337
310
355
348
316
334
338
322
335
329
354
332
312
310
349
347
322
298
320
329
341
367
345
315
340
320
336
333
339
328
343
317
326
335
314
307
339
317
310
299
321
314
301
335
292
324
381
337
356
334
325
331
306
301
311
327
324
314
309
330
345
325
337
335
339
317
323
328
343
326
327
334
345
337
332
334
344
323
333
318
322
337
346
336
324
329
335
345
334
339
335
323
341
333
342
310
318
334
337
340
327
333
335
331
341
321
333
330
342
349
363
350
326
363
370
359
345
326
367
355
338
342
327
352
355
372
375
351
341
342
326
336
355
341
351
357
375
320
318
330
321
367
351
360
327
341
374
374
342
339
348
365
349
348
343
320
325
337
375
345
361
395
395
324
353
349
328
344
343
350
319
316
323
334
364
311
309
351
325
340
326
356
320
328
338
326
349
338
328
334
351
355
355
333
317
353
347
335
324
338
342
336
330
361
355
344
368
335
365
356
350
349
354
365
372
403
364
320
346
345
378
327
357
347
303
313
326
336
313
344
334
348
355
328
351
360
345
368
372
379
370
372
352
336
370
347
338
353
366
350
336
358
334
340
366
340
350
341
296
335
334
376
375
374
366
349
376
354
362
353
378
355
361
368
350
369
363
364
349
331
348
355
367
388
378
356
402
362
359
372
380
366
350
369
364
362
326
336
347
346
365
358
345
364
331
341
383
333
333
333
338
362
346
349
368
346
391
339
376
359
367
354
351
356
345
348
334
352
355
350
329
334
382
335
328
344
364
352
360
366
354
343
351
329
346
383
359
376
350
359
353
353
354
357
355
347
372
381
350
366
356
327
358
342
360
367
357
372
359
346
379
360
366
368
383
364
344
362
349
371
353
367
375
409
397
339
350
369
367
376
404
394
401
367
408
379
372
370
387
430
385
397
407
381
370
385
416
374
391
408
378
381
366
361
403
401
404
374
372
377
369
425
375
351
389
406
396
375
383
386
411
378
385
368
334
394
366
369
375
350
377
332
342
325
395
393
368
349
401
371
383
414
430
417
444
404
448
437
450
454
497
494
491
535
514
462
462
463
461
407
409
407
369
354
368
328
335
323
337
318
302
307
292
282
266
249
218
177
161
142
122
128
110
118
103
106
97
100
108
118
125
165
207
348
690
1305
2025
2825
3255
2994
2074
1163
548
249
153
109
106
96
94
102
104
89
82
90
106
91
89
87
99
90
78
93
94
92
102
94
90
91
89
91
75
103
80
93
93
80
99
106
94
91
98
89
92
86
81
89
92
86
99
99
87
91
71
93
96
92
90
88
90
83
90
96
92
94
106
98
98
96
95
93
87
92
94
97
89
92
91
93
78
81
99
99
91
90
94
78
95
87
93
95
93
81
91
88
74
76
84
81
72
82
83
90
82
93
93
101
100
103
89
107
87
96
94
99
91
85
96
99
88
98
95
91
93
84
77
82
94
106
106
101
96
101
76
83
100
99
112
110
102
119
99
89
92
94
95
85
84
73
91
94
91
94
102
95
74
113
119
145
142
119
107
96
77
87
85
86
92
95
91
96
100
117
148
165
151
113
93
91
87
105
87
88
74
92
86
79
97
83
84
81
75
87
77
81
84
75
77
76
85
83
69
79
92
90
85
82
80
69
79
70
82
75
82
80
68
85
81
75
88
87
94
87
81
75
98
86
82
80
65
63
67
70
69
82
69
69
78
68
76
78
73
75
74
82
79
88
80
78
69
76
72
67
64
70
89
83
86
71
79
64
74
75
79
105
75
74
80
84
75
81
71
84
80
82
84
73
82
91
76
100
93
75
77
78
69
75
78
82
73
67
69
67
73
76
76
77
93
84
82
84
88
82
77
87
82
60
65
83
83
84
86
75
75
67
68
80
71
77
80
76
88
80
80
80
95
73
82
79
74
72
79
81
83
74
92
76
88
87
72
74
75
67
71
71
66
73
83
80
77
75
75
79
75
76
55
71
85
72
78
75
68
67
93
79
75
72
91
80
88
67
73
78
72
92
90
83
83
82
81
70
82
69
78
79
70
74
64
82
72
76
83
82
85
78
76
82
74
78
67
78
72
84
79
73
64
72
88
86
71
81
78
90
88
81
72
76
80
68
73
60
74
92
73
73
68
77
85
84
78
76
71
70
87
95
85
89
77
82
68
88
68
73
90
93
79
80
75
85
90
88
79
90
80
68
78
78
79
77
82
72
77
89
74
88
78
80
86
81
86
99
84
82
86
87
77
82
79
92
78
80
86
72
70
78
72
83
82
76
86
80
73
83
78
84
76
83
91
86
77
82
89
91
74
79
72
88
85
76
70
96
67
77
81
87
81
85
92
89
80
79
69
84
89
70
92
88
77
80
75
73
70
76
80
68
80
78
74
81
89
90
73
82
72
100
88
72
83
91
78
71
90
88
89
89
93
89
98
89
77
92
80
83
78
78
83
88
95
70
87
99
84
90
91
76
89
103
86
88
70
90
96
84
85
83
90
93
77
76
83
75
79
82
90
86
86
90
95
87
94
80
68
88
99
81
101
90
100
88
95
85
85
79
76
87
95
104
103
83
78
83
78
75
89
87
82
79
78
76
102
99
88
90
87
98
81
74
89
83
89
93
89
96
94
103
90
89
83
87
98
101
91
96
89
94
94
93
92
91
92
87
89
108
99
99
91
91
101
102
98
92
97
92
96
95
96
98
87
122
96
96
101
91
103
92
93
110
102
95
103
97
94
80
95
86
96
81
105
101
99
92
97
107
112
109
113
103
116
126
120
109
112
110
124
114
101
119
114
112
117
108
103
111
118
87
91
106
106
84
81
88
81
75
103
73
91
85
79
65
75
91
76
84
70
68
72
62
77
90
98
112
159
215
297
378
461
469
429
346
249
170
138
104
88
76
77
65
62
65
74
68
64
67
67
57
59
78
54
67
60
49
64
58
63
59
58
57
60
61
53
65
57
49
65
74
54
56
45
56
58
66
65
53
54
60
68
47
58
58
68
73
72
64
71
62
79
70
64
64
68
76
73
65
63
62
45
62
55
55
55
48
65
51
40
51
53
39
32
33
29
17
15
13
20
37
27
22
20
13
25
20
33
36
58
109
197
313
445
528
421
277
136
78
35
20
30
22
19
29
22
23
15
21
20
19
24
22
31
27
20
13
19
28
24
16
26
23
30
26
24
18
16
23
20
26
21
16
17
24
18
16
17
18
19
20
18
21
20
18
17
24
20
22
23
27
25
28
25
24
17
21
28
28
24
22
25
21
23
17
25
23
34
26
19
14
26
20
23
19
25
15
18
13
22
25
24
19
11
24
19
20
17
21
19
21
21
17
19
16
15
20
20
20
29
20
24
23
17
24
25
19
23
21
16
24
16
22
21
23
20
22
22
19
16
15
16
17
22
18
17
16
13
11
14
14
17
16
15
14
14
15
14
19
23
21
35
27
27
31
38
43
51
73
89
98
83
80
55
36
18
14
12
8
5
4
7
5
5
6
8
4
4
8
7
7
18
20
22
16
21
21
19
22
18
15
12
14
12
25
21
18
18
10
14
2
2
3
3
3
2
2
1
2
2
2


2024
3
5
10
49
48
0
1
O
XPS

1486.7
300.0
1E37
1E37
1E37
1E37
FAT
50.00
5.0
2.800
1E37
2400
1200
1E37
1E37


-1
kinetic energy
eV
941.7
0.100
1
count rate
c/s
pulse counting
0.200
2
70E-9
1E37
1E37
1E37
0
201
186
6797
553
517
521
514
506
501
505
512
517
532
488
490
505
492
487
472
430
424
417
453
420
392
393
400
383
359
327
319
319
311
321
303
282
278
261
256
270
278
267
263
242
230
240
222
220
218
206
225
242
231
240
211
204
192
195
203
209
196
217
228
234
198
211
217
238
219
222
222
227
228
215
218
235
224
227
212
224
224
234
245
250
237
231
235
254
245
257
272
255
268
304
328
361
362
363
428
475
506
563
622
709
806
926
1027
1100
1243
1446
1689
1889
2149
2440
2680
2933
3363
3651
3954
4202
4611
5073
5233
5583
5942
6180
6381
6588
6797
6725
6610
6549
6282
6109
5812
5509
5081
4718
4268
3885
3501
3037
2714
2285
1979
1777
1467
1226
1103
926
773
667
556
491
459
409
377
356
331
303
290
276
270
272
254
241
240
224
224
232
228
225
223
207
200
193
201
196
197
199
189
216
216
201
210
197
194
208
195
206
195
194
186
203
196
194
204
197
208
208
200
188
205
199


2024
3
5
10
49
48
0
1
c
XPS

1486.7
300.0
1E37
1E37
1E37
1E37
FAT
50.00
5.0
2.800
1E37
2400
1200
1E37
1E37


-1
kinetic energy
eV
1211.7
-0.100
1
count rate
c/s
pulse counting
0.200
10
70E-9
1E37
1E37
1E37
0
201
759
909
831
824
890
866
822
859
862
883
852
825
836
852
864
856
810
797
809
829
865
886
823
819
820
847
823
829
821
804
802
805
807
806
793
777
793
800
827
824
791
800
824
840
818
808
786
803
828
809
820
799
821
849
850
857
839
803
765
820
871
827
817
840
819
851
805
788
803
813
825
810
766
812
825
814
840
825
800
848
823
820
829
821
849
829
827
811
818
833
844
785
832
789
821
837
896
860
841
857
851
840
859
855
830
856
844
886
909
875
835
839
843
866
824
852
853
797
831
825
836
812
819
825
855
840
841
849
858
841
794
794
812
811
823
806
773
805
798
829
799
795
783
827
836
782
796
805
836
798
814
830
806
759
781
807
828
817
810
819
813
821
788
785
824
814
780
781
834
856
859
836
801
790
840
828
804
809
805
808
785
806
829
826
791
827
826
808
831
819
849
843
818
814
777
818
841
784
799
834
836
830
828


2024
3
5
10
49
48
0
1
Si
XPS

1486.7
300.0
1E37
1E37
1E37
1E37
FAT
50.00
5.0
2.800
1E37
2400
1200
1E37
1E37


-1
kinetic energy
eV
1376.7
0.100
1
count rate
c/s
pulse counting
0.200
5
70E-9
1E37
1E37
1E37
0
201
90
2570
121
139
133
126
128
117
125
120
117
103
100
123
120
120
116
113
113
121
111
122
119
125
106
112
114
125
115
117
107
112
114
109
123
120
121
151
140
147
147
153
172
200
206
214
230
261
302
353
402
452
518
574
679
807
912
1003
1088
1224
1333
1477
1589
1719
1871
2031
2096
2264
2396
2448
2462
2570
2545
2551
2519
2386
2411
2228
2165
1993
1817
1689
1596
1355
1243
1091
886
805
685
571
510
442
355
284
262
233
192
171
180
142
124
124
122
113
121
99
98
102
106
102
104
95
95
121
105
101
116
103
102
108
107
112
116
112
105
93
99
104
93
97
123
100
110
109
97
122
117
109
120
104
109
107
102
97
92
90
108
114
101
112
119
130
107
107
125
102
90
90
94
92
98
107
103
102
110
107
100
102
94
95
110
104
113
109
106
96
117
104
91
120
103
94
110
98
103
107
114
122
112
106
116
108
108
112
111
116
116
108
117
124
116
104
113


2024
3
5
10
49
48
0
1
Ni
XPS

1486.7
300.0
1E37
1E37
1E37
1E37
FAT
50.00
5.0
2.800
1E37
2400
1200
1E37
1E37


-1
kinetic energy
eV
596.7
0.100
1
count rate
c/s
pulse counting
0.200
40
70E-9
1E37
1E37
1E37
0
501
13176
17234
14777
14847
14782
14749
14727
14738
14665
14915
14967
14585
14566
14900
14776
14756
14727
14928
14766
14850
14889
14815
15039
14947
14717
14763
14870
14967
15001
14897
14903
14865
14973
14894
14737
14783
14872
14767
14852
14697
15001
14838
14904
14854
14817
14703
14847
14924
14908
14820
15039
14937
14946
14845
14916
14918
14939
14975
14954
14832
14810
14981
15116
14907
14857
14861
14953
14875
14747
15017
14886
15009
15027
14867
15098
14953
14886
14959
14919
14884
14910
14909
14731
14788
14904
14959
14788
14896
14866
14875
14932
14922
14808
14873
14771
14748
14816
14925
14750
14614
14809
14945
14737
14833
14604
14691
14872
14801
14879
14658
14684
14675
14715
14748
14895
14900
14844
14845
14797
14776
14895
14951
14934
15012
14992
14845
14768
14938
14898
15008
14907
14827
14838
14938
15130
14981
14981
15043
15053
15323
15217
15141
15124
15079
15237
15125
14980
15177
15239
15163
15084
15211
15315
15274
15353
15278
15273
15172
15274
15443
15229
15336
15372
15332
15523
15518
15394
15350
15525
15443
15339
15546
15358
15339
15438
15644
15532
15421
15595
15676
15583
15606
15629
15666
15769
15695
15712
15891
15765
15881
15971
15982
15912
15813
15890
16143
16032
15860
15774
15820
15880
15642
15675
15584
15534
15471
15458
15396
15503
15346
15270
15167
15155
15415
15237
15050
14871
14942
14957
15035
14862
14810
14831
14834
14849
14784
14795
14591
14741
14521
14421
14644
14393
14363
14340
14493
14446
14437
14468
14404
14417
14371
14343
14291
14377
14287
14415
14297
14463
14544
14392
14379
14241
14391
14369
14430
14330
14424
14536
14462
14543
14498
14424
14369
14506
14497
14333
14438
14384
14408
14399
14437
14524
14335
14345
14527
14542
14561
14627
14523
14475
14619
14522
14565
14701
14673
14619
14540
14615
14618
14762
14816
14750
14706
14655
14791
14663
14659
14869
14773
14782
14685
14710
14701
14764
14704
14675
14746
14674
14699
14737
14853
14810
14670
14788
14705
14781
14941
14930
14775
14805
14943
14843
14817
14947
14938
15000
14906
15075
15050
15203
15158
15124
15241
15221
15368
15169
15197
15193
15236
15274
15493
15410
15409
15456
15396
15487
15570
15785
15664
15936
16132
16225
16339
16420
16496
16563
16726
16784
16847
16944
17111
17043
17030
17153
17234
17115
16954
16850
16715
16634
16519
16385
16334
16300
15933
15888
15848
15653
15696
15787
15747
15753
15506
15457
15380
15332
15173
15072
14848
14636
14720
14554
14641
14280
14134
14094
14030
14010
14002
13778
13596
13730
13523
13643
13516
13378
13551
13493
13521
13427
13444
13350
13340
13394
13275
13294
13273
13350
13281
13320
13383
13498
13395
13309
13270
13290
13356
13276
13330
13276
13176
13345
13334
13472
13642
13404
13372
13335
13348
13254
13346
13406
13401
13336
13352
13499
13451
13423
13520
13570
13452
13461
13283
13245
13215
13317
13302
13401
13361
13432
13371
13442
13491
13487
13271
13407
13506
13518
13383
13362
13458
13380
13404
13428
13589
13510
13498
13504
13512
13504
13371
13423
13571
13600
13497
13483
13600
13484
13508
13502
13234
13548
13579
13360
13496
13482
13355
13447
13320
13382
13577
13567


2024
3
5
10
49
48
0
1
O V
XPS

1486.7
300.0
1E37
1E37
1E37
1E37
FAT
50.00
5.0
2.800
1E37
2400
1200
1E37
1E37


-1
kinetic energy
eV
941.7
0.100
1
count rate
c/s
pulse counting
0.200
1
70E-9
1E37
1E37
1E37
0
201
85
3465
287
261
282
284
274
289
278
261
262
272
273
250
252
265
253
262
247
223
244
204
218
210
213
209
182
184
181
177
165
157
169
159
155
148
142
126
145
142
138
124
127
134
126
134
126
118
110
102
110
117
102
90
102
99
107
105
108
119
114
123
109
102
98
105
114
102
97
122
115
116
128
113
118
107
105
125
131
110
121
125
119
110
129
123
122
126
138
143
153
158
146
179
179
188
229
231
238
260
306
359
401
448
469
541
642
760
846
944
1060
1165
1325
1484
1584
1776
1929
2030
2228
2477
2641
2754
2987
3136
3252
3334
3405
3465
3458
3423
3374
3311
3206
3030
2836
2699
2531
2336
2052
1800
1618
1419
1177
1092
936
750
663
593
516
423
368
304
247
231
217
209
176
167
158
144
143
142
122
124
121
107
116
131
131
112
94
98
112
113
111
99
101
105
116
104
109
110
108
89
99
105
126
117
109
97
85
98
109
113
118
109
105
92
87
88
94
99
111
end of experiment
