VAMAS Surface Chemical Analysis Standard Data Transfer Format 1988 May 4




1
Experiment Type: XPS
NORM
REGULAR
6
0
0
0
0
0
6


2024
3
1
18
58
45
0
0
XPS

1486.7
300.0
1E37
1E37
1E37
1E37
FAT
50.00
5.0
2.800
1E37
2400
1200
1E37
1E37


-1
kinetic energy
eV
86.7
0.5
1
count rate
c/s
pulse counting
0.200
1
70E-9
1E37
1E37
1E37
0
2801
0
3379
538
515
470
516
524
510
500
487
521
515
519
484
491
492
491
493
454
467
480
481
487
432
487
463
455
479
459
460
471
481
476
460
457
464
436
449
409
440
442
440
440
422
476
442
450
443
438
439
430
435
437
421
392
387
421
419
415
411
437
433
451
411
377
398
394
422
399
411
420
388
408
427
427
424
441
428
414
420
403
411
383
410
414
431
426
384
406
421
401
427
372
404
421
420
414
393
377
402
399
405
386
365
381
409
409
402
376
400
412
412
402
406
406
394
362
404
384
388
381
374
400
403
361
356
366
359
383
372
399
394
370
386
439
359
375
365
373
383
408
378
390
380
342
356
374
417
374
389
401
386
411
379
376
373
379
387
397
377
368
357
337
396
363
395
372
361
397
358
365
364
403
407
358
376
369
384
394
412
408
372
363
364
378
375
392
372
365
375
359
368
371
348
380
382
379
384
383
376
375
387
395
397
384
343
386
377
364
353
383
411
385
386
365
389
393
377
343
385
413
370
390
397
389
369
373
368
353
348
352
391
393
394
385
419
390
378
365
392
369
387
385
390
368
386
362
387
424
366
372
375
362
392
412
380
370
403
399
400
396
391
398
386
384
404
417
409
394
353
380
394
396
398
371
380
374
388
395
419
410
392
387
387
392
383
397
381
377
358
381
410
385
359
397
372
403
372
419
390
375
360
408
391
417
413
389
393
367
411
421
400
398
386
385
385
388
391
384
393
415
415
400
406
399
408
405
373
434
388
364
415
393
366
398
416
440
411
402
388
422
412
430
405
422
403
424
435
442
426
439
435
426
404
404
443
393
385
404
403
433
408
415
421
414
449
436
429
414
402
384
431
416
421
410
439
409
417
401
406
431
458
420
429
443
398
387
387
396
403
404
401
406
396
420
391
394
428
439
422
430
415
413
384
387
447
420
451
393
416
407
419
438
404
455
404
437
424
394
418
447
397
431
407
413
433
403
430
410
442
410
445
438
400
403
446
429
435
431
443
447
465
426
461
458
441
431
437
452
415
456
443
425
436
430
428
410
402
443
416
449
452
467
440
430
437
442
466
487
437
444
468
454
446
423
440
441
446
494
475
486
453
433
446
468
466
434
448
459
469
475
474
420
463
468
462
483
446
460
467
449
462
495
443
457
475
436
475
488
470
445
449
450
450
489
498
455
463
459
492
470
460
453
459
484
446
419
463
463
472
476
474
499
467
460
463
407
443
489
492
467
479
485
458
448
482
489
462
498
504
478
510
484
482
484
489
462
476
489
505
505
537
471
484
495
510
505
471
541
461
472
502
492
475
471
500
549
495
501
516
462
497
440
487
494
497
506
481
474
509
486
508
545
483
484
483
511
495
516
486
487
497
462
497
500
513
511
531
518
499
547
534
496
520
532
546
525
504
484
536
510
544
511
519
518
527
528
519
525
525
511
547
500
499
507
503
513
529
566
527
494
469
493
514
513
527
512
541
536
531
548
541
518
542
546
525
527
540
534
530
543
565
568
565
510
491
525
533
563
552
538
524
525
546
558
556
575
537
525
503
564
545
556
533
529
576
557
545
518
547
552
566
540
532
516
554
592
533
545
560
601
578
581
531
605
560
519
573
557
568
599
531
526
590
577
567
597
564
585
565
577
556
590
573
572
596
589
546
576
592
554
572
573
555
564
553
543
606
603
592
607
575
590
578
569
584
592
589
584
564
577
573
626
627
623
634
626
613
648
637
618
603
590
565
615
617
632
633
624
623
632
617
604
612
571
596
630
583
572
587
614
589
602
612
604
615
621
664
615
623
614
666
660
666
653
674
657
644
667
689
708
638
643
671
605
608
612
587
604
607
591
609
605
589
621
626
579
535
534
564
581
540
555
571
574
522
552
549
630
595
619
603
682
649
695
718
734
777
778
813
843
835
822
836
820
790
713
670
660
664
600
631
548
571
517
524
506
497
508
481
479
449
450
463
432
393
374
389
386
397
390
388
385
388
400
400
380
424
402
375
418
399
401
385
386
402
369
405
381
402
399
399
400
429
404
374
394
395
415
413
412
416
402
389
389
374
416
374
388
406
390
431
419
395
433
407
413
413
388
394
404
385
362
424
407
426
368
372
403
365
416
437
412
379
419
425
402
375
381
397
396
406
377
372
401
388
390
424
414
394
400
379
391
381
418
426
428
403
416
401
405
415
422
412
380
422
393
404
391
391
404
420
407
412
366
423
388
380
411
441
400
367
373
396
417
386
390
378
391
411
391
405
402
427
462
405
429
444
394
393
407
412
416
394
419
376
420
414
414
406
423
438
439
414
418
400
391
425
425
402
426
405
377
423
405
395
389
395
389
384
415
413
401
415
400
416
410
413
436
443
450
427
441
429
420
413
413
420
411
433
450
420
428
434
414
437
401
397
410
419
392
408
414
380
381
403
408
385
390
407
404
403
380
390
426
444
441
441
449
411
425
391
445
433
428
402
422
463
468
473
480
451
452
477
454
408
397
364
359
336
371
370
336
341
332
349
347
379
349
360
385
367
362
346
352
336
342
358
388
374
352
346
358
369
366
359
368
378
353
383
351
347
367
352
363
366
344
338
379
382
399
371
368
346
368
375
380
356
357
357
378
369
370
365
390
369
341
348
354
370
378
356
376
355
345
363
395
369
381
372
387
374
362
376
372
368
357
362
356
366
363
368
379
367
369
363
346
373
361
337
370
364
381
369
345
353
378
367
360
356
380
376
363
367
375
353
333
390
366
385
394
380
383
382
346
401
382
363
355
378
358
445
393
371
364
353
370
379
364
396
358
343
377
380
384
383
395
394
375
346
354
373
404
339
339
389
388
378
399
386
386
368
376
378
366
357
361
356
351
346
357
374
337
384
358
381
358
371
381
368
352
350
355
361
371
371
349
377
364
353
351
384
342
355
344
372
365
365
346
350
377
341
352
363
369
388
390
336
349
341
365
359
369
367
364
380
366
349
391
362
369
365
369
358
366
364
343
358
404
369
351
330
339
361
364
374
376
379
360
367
361
372
358
370
389
352
363
358
390
367
369
397
387
338
383
383
378
371
359
390
373
383
375
372
380
403
356
406
394
376
353
376
380
352
382
379
387
357
367
355
380
335
383
389
385
398
358
362
373
365
381
374
375
379
339
355
361
385
373
381
385
339
365
405
379
378
375
360
355
375
364
333
363
376
371
365
346
343
372
345
375
360
343
336
321
332
348
337
349
358
367
358
345
342
359
378
348
373
395
353
384
362
376
344
336
347
351
376
369
361
363
362
333
388
372
351
361
357
338
359
354
346
356
323
362
338
365
384
369
353
347
345
365
365
348
364
353
351
334
369
360
359
412
353
388
355
368
340
363
379
371
408
377
377
362
356
351
354
347
357
373
397
389
372
354
354
396
381
381
354
367
362
400
387
405
377
388
385
384
398
423
409
381
386
425
427
400
401
404
401
409
367
370
374
359
389
393
406
399
351
346
346
368
376
388
374
394
350
364
358
339
359
353
357
348
363
340
347
339
357
356
366
378
368
357
385
367
355
345
384
402
336
348
356
353
382
340
366
375
363
355
362
357
373
357
350
381
373
330
389
377
349
361
367
357
404
377
375
408
342
380
367
378
409
388
383
393
340
371
393
384
390
387
374
393
358
374
351
360
384
393
406
395
371
360
374
379
376
403
391
395
401
393
395
386
377
384
365
407
433
394
423
382
386
375
394
388
411
409
408
401
407
376
370
382
403
415
393
386
404
411
406
405
409
384
396
397
385
403
407
411
398
391
375
386
368
383
355
363
350
396
381
371
365
386
397
402
414
399
449
458
432
445
460
439
508
470
495
470
497
496
501
529
474
513
485
460
446
445
430
397
397
354
354
348
345
347
336
338
319
299
308
290
287
257
209
203
170
142
116
130
120
105
100
105
86
108
110
109
126
148
219
381
679
1253
2060
2962
3379
3053
2140
1178
564
249
163
129
108
111
94
88
74
77
105
93
85
91
81
70
90
100
97
82
91
89
82
75
102
81
80
75
67
92
111
80
96
93
81
86
81
93
84
80
87
78
82
84
93
83
77
74
86
83
93
98
102
82
76
84
75
89
100
88
84
81
85
81
99
91
99
92
79
94
82
98
86
86
83
87
82
70
83
87
105
92
91
73
72
81
79
80
84
90
80
74
77
88
103
82
72
85
65
93
86
95
89
72
87
84
92
73
83
92
86
91
83
79
84
91
71
83
87
74
81
91
84
87
77
89
87
82
63
85
82
90
80
74
79
82
74
83
82
83
76
83
73
69
94
86
83
76
84
83
70
84
87
76
83
103
71
89
80
85
87
87
89
93
87
79
90
92
90
74
83
87
79
83
77
93
77
87
80
73
79
80
86
98
71
70
76
90
81
91
88
85
74
90
82
82
86
80
71
90
84
81
81
76
88
80
87
79
78
89
81
73
75
90
89
69
79
75
72
82
77
78
66
82
80
92
85
82
85
81
74
77
89
81
95
84
80
75
93
96
90
93
88
80
81
81
73
87
89
91
74
94
87
77
94
74
87
87
81
78
98
76
83
86
99
78
100
86
86
92
86
85
93
83
74
81
87
86
69
76
98
71
60
80
79
83
85
84
70
83
73
87
74
80
97
84
79
83
96
91
89
87
86
83
82
86
84
95
86
98
87
95
81
86
93
78
94
89
86
75
91
82
88
89
96
89
85
82
99
92
88
79
89
64
76
85
94
91
77
86
89
92
98
82
77
71
84
97
80
83
112
93
86
96
89
77
92
91
85
79
91
101
81
82
89
86
82
94
87
89
86
87
86
90
70
89
82
74
88
90
93
88
90
85
88
84
76
85
97
82
87
77
85
96
77
97
85
78
93
80
105
102
79
90
73
85
94
101
80
93
91
84
83
95
85
80
72
103
94
83
77
96
87
80
89
88
98
94
91
89
94
83
95
87
92
85
90
86
95
98
92
98
97
90
86
86
67
91
89
101
99
83
93
91
99
82
84
81
74
83
89
85
97
72
74
82
75
81
77
84
93
104
100
83
86
80
75
82
92
78
92
88
97
78
76
97
102
111
120
124
117
117
133
125
111
114
76
81
73
82
84
82
86
84
91
87
77
82
81
88
85
80
89
83
70
80
79
81
91
89
75
81
86
90
83
90
93
95
74
83
80
87
75
79
84
73
98
80
109
81
87
70
90
90
82
88
88
81
68
63
90
102
91
91
79
93
95
86
77
80
105
81
93
87
95
76
85
74
86
69
81
73
82
79
88
85
92
93
84
91
80
81
75
93
90
86
88
76
87
88
97
102
78
82
93
82
78
111
89
93
90
82
95
87
87
84
86
82
97
93
77
73
85
93
80
86
71
76
92
82
88
84
75
86
93
85
86
100
94
97
93
76
97
94
89
105
87
94
96
88
83
85
92
90
88
82
82
93
97
98
94
100
102
93
96
87
112
107
99
94
106
104
113
88
99
97
100
101
102
108
108
93
87
88
88
93
88
100
91
90
106
106
82
85
89
87
108
88
93
100
106
107
91
105
111
106
93
101
111
103
104
99
111
126
111
120
117
102
122
114
111
120
120
115
111
119
93
96
115
100
102
98
86
87
111
103
91
82
86
75
77
86
80
71
77
71
65
71
67
67
70
66
74
73
93
91
94
113
130
192
277
359
415
495
425
336
253
181
133
118
89
80
87
78
74
68
56
61
64
71
75
67
69
67
63
79
70
70
56
61
69
71
70
63
69
61
54
65
73
51
54
66
58
62
53
68
67
60
68
57
64
62
64
65
73
76
78
64
90
75
63
85
79
82
67
75
66
69
69
65
56
58
63
51
61
62
51
60
66
54
49
59
53
41
40
36
38
28
34
28
36
24
35
37
30
22
19
29
28
27
58
89
193
338
450
466
396
274
181
82
38
29
29
28
22
21
34
28
31
23
30
25
24
29
35
28
26
32
24
24
25
26
29
23
29
28
31
23
22
22
24
25
19
18
22
21
20
20
24
21
28
19
16
22
21
26
24
23
27
28
28
24
29
24
23
26
36
23
26
29
28
37
38
27
35
32
35
32
26
16
18
27
21
32
26
29
21
21
18
15
19
18
15
22
14
19
19
15
16
19
21
22
27
20
24
30
22
16
21
35
23
16
18
31
30
30
17
16
21
25
25
25
24
20
20
17
17
16
18
16
15
18
16
25
13
14
15
17
13
15
14
10
16
18
15
21
14
10
21
16
18
22
18
18
29
31
43
41
60
79
85
78
70
63
50
38
25
15
10
9
8
7
4
6
2
4
3
4
7
4
16
19
14
22
19
9
21
23
26
17
18
17
18
15
17
16
22
27
21
13
17
12
10
6
4
6
3
5
3
1
1
0


2024
3
1
18
58
45
0
1
O
XPS

1486.7
300.0
1E37
1E37
1E37
1E37
FAT
50.00
5.0
2.800
1E37
2400
1200
1E37
1E37


-1
kinetic energy
eV
941.7
0.100
1
count rate
c/s
pulse counting
0.200
2
70E-9
1E37
1E37
1E37
0
201
161
6781
575
588
550
562
569
560
527
539
547
527
501
493
498
489
477
483
486
457
391
406
417
408
419
403
375
389
384
337
330
337
316
305
290
278
293
290
278
267
258
267
274
262
245
243
242
262
276
245
236
232
221
222
238
231
233
209
212
215
219
208
220
202
222
226
229
221
219
221
210
184
196
208
221
235
229
215
219
231
214
218
215
195
218
223
218
220
237
245
244
260
267
301
315
340
351
369
432
502
541
592
678
762
859
971
1154
1319
1493
1692
1941
2224
2499
2732
2974
3387
3690
4076
4400
4727
5049
5496
5837
6112
6282
6442
6630
6774
6781
6727
6766
6494
6323
6050
5670
5300
4929
4552
4081
3588
3165
2829
2426
2113
1850
1546
1310
1128
957
792
730
648
583
492
437
387
370
332
311
292
290
281
279
274
227
237
254
253
234
216
206
190
202
196
199
180
198
199
204
189
202
194
173
172
188
189
177
183
199
184
185
178
171
175
182
185
169
164
181
161
172
188
187


2024
3
1
18
58
45
0
1
c
XPS

1486.7
300.0
1E37
1E37
1E37
1E37
FAT
50.00
5.0
2.800
1E37
2400
1200
1E37
1E37


-1
kinetic energy
eV
1211.7
-0.100
1
count rate
c/s
pulse counting
0.200
10
70E-9
1E37
1E37
1E37
0
201
786
1378
869
895
889
900
869
889
881
871
855
853
894
891
837
845
829
847
827
883
857
825
857
848
852
853
866
861
841
843
851
863
862
858
838
840
826
868
861
835
846
892
886
887
884
885
868
885
878
874
881
898
873
894
874
884
915
900
924
941
961
938
927
910
919
924
970
942
958
932
933
948
964
968
987
1028
1021
1029
1033
1070
1092
1073
1095
1110
1160
1136
1142
1156
1193
1159
1185
1236
1238
1247
1214
1196
1192
1248
1270
1271
1258
1321
1295
1294
1322
1336
1331
1341
1336
1342
1327
1293
1378
1332
1295
1215
1177
1173
1125
1101
1110
1056
1032
1035
994
932
876
911
906
891
889
866
882
883
853
852
823
847
840
846
840
842
830
825
845
863
865
865
839
841
811
863
853
853
849
830
833
854
840
863
884
830
829
868
837
820
864
848
816
836
855
835
866
843
805
834
847
842
828
852
873
851
818
820
871
888
849
800
823
815
813
844
872
809
806
833
831
880
817
786
836
846
816


2024
3
1
18
58
45
0
1
Si
XPS

1486.7
300.0
1E37
1E37
1E37
1E37
FAT
50.00
5.0
2.800
1E37
2400
1200
1E37
1E37


-1
kinetic energy
eV
1376.7
0.100
1
count rate
c/s
pulse counting
0.200
5
70E-9
1E37
1E37
1E37
0
201
95
2508
139
128
132
139
133
135
121
120
127
120
117
133
114
102
120
117
112
129
115
118
123
120
111
117
124
130
118
104
112
104
129
123
121
141
137
139
141
133
146
165
153
160
192
214
229
256
283
314
388
449
498
544
662
754
889
965
1014
1163
1317
1440
1574
1738
1899
2023
2112
2214
2227
2277
2405
2404
2456
2508
2374
2360
2324
2227
2040
1914
1810
1641
1519
1366
1204
1068
939
818
721
633
554
460
413
353
281
259
203
191
178
152
151
157
156
145
120
126
126
126
126
114
113
111
124
123
127
128
115
114
128
127
123
113
112
107
125
117
118
115
131
124
121
111
103
118
120
109
104
115
119
127
120
125
127
120
137
130
114
117
116
126
107
95
108
120
106
110
114
120
129
120
122
102
102
113
116
115
116
121
120
121
121
113
117
119
117
109
118
119
107
113
114
131
127
118
134
125
126
132
126
122
121
117
120
132
129
118
136
130
130
131
133
129
127


2024
3
1
18
58
45
0
1
Ni
XPS

1486.7
300.0
1E37
1E37
1E37
1E37
FAT
50.00
5.0
2.800
1E37
2400
1200
1E37
1E37


-1
kinetic energy
eV
596.7
0.100
1
count rate
c/s
pulse counting
0.200
40
70E-9
1E37
1E37
1E37
0
501
14181
19148
16418
16398
16473
16552
16634
16539
16560
16490
16572
16554
16518
16347
16468
16423
16460
16563
16507
16479
16430
16389
16451
16546
16487
16543
16627
16499
16501
16688
16586
16585
16605
16666
16634
16534
16530
16669
16509
16615
16680
16751
16671
16557
16570
16726
16648
16551
16498
16444
16544
16784
16735
16690
16843
16875
16760
16778
16990
16816
17014
17137
16847
16873
16974
16924
17097
17092
17017
17167
17083
17089
17100
17170
17230
17283
17335
17121
17226
17369
17180
17245
17398
17355
17304
17172
17399
17456
17654
17562
17448
17285
17394
17558
17395
17343
17106
17208
17356
17543
17568
17632
17439
17287
17322
17277
17486
17471
17359
17408
17382
17398
17182
17157
17203
17055
17412
17268
17228
17113
17161
17233
17185
17231
17295
17452
17253
17247
17149
17350
17419
17326
17301
17285
17422
17304
17371
17367
17380
17413
17511
17355
17410
17625
17574
17642
17658
17771
17780
17888
17762
17791
17706
17983
18036
17950
18023
18199
17940
17837
17948
17960
17969
17919
17898
18014
17825
17729
17701
17599
17881
17747
17564
17609
17400
17322
17424
17400
17310
17235
17179
17099
17009
17106
17063
17057
17016
17016
16951
16923
17030
16735
16719
16692
16763
16674
16561
16544
16222
16286
16399
16114
16133
16165
16072
16026
16265
16098
15866
15836
15855
15939
15945
16034
16072
15790
15905
16047
16044
15853
15952
15917
15980
15841
15827
16026
16023
15868
16069
16099
15954
15799
15997
16110
16013
16041
15927
16033
15960
16115
16108
15923
16021
16047
16135
16124
16427
16349
16253
16202
16306
16311
16286
16512
16573
16442
16490
16547
16608
16777
16508
16767
17002
16785
16822
16954
16805
16824
16856
17019
17170
17095
17155
17072
17125
17229
17297
17208
16942
17009
16964
17203
17174
17175
17033
17054
17314
17149
17016
17062
17013
17000
16981
16984
16876
16978
16854
16971
17093
16806
16867
16949
16847
16883
16942
17034
16882
16894
16854
17028
17193
17074
17068
17117
17367
17247
17343
17442
17376
17547
17591
17727
17878
18007
18052
18169
18284
18612
18489
18494
18637
18656
18723
18844
18884
18713
19059
19134
19016
19087
19148
19048
19018
18796
18683
18811
18769
18660
18488
18434
18562
18324
18275
18360
18244
18154
18312
18154
17965
17827
17901
17765
17849
17733
17561
17312
17257
16798
16660
16425
16365
16117
15830
15865
15517
15195
15266
15145
14898
14807
14603
14492
14568
14652
14620
14569
14512
14476
14551
14786
14389
14373
14433
14496
14558
14490
14437
14365
14538
14453
14433
14317
14376
14425
14404
14388
14237
14198
14319
14424
14556
14424
14451
14378
14341
14290
14181
14428
14403
14444
14286
14307
14352
14317
14415
14426
14454
14464
14236
14306
14330
14320
14318
14314
14491
14435
14496
14277
14413
14312
14291
14351
14297
14303
14330
14339
14496
14388
14413
14390
14311
14351
14269
14389
14548
14422
14367
14286
14240
14237
14425
14459
14407
14374
14400
14385
14448
14481
14340
14347
14379
14383
14471
14394
14261
14440
14410
14623
14440
14293
14527
14429
14372
14402
14485
14540
14477
14465
14648
14520
14363
14410
14425
14272
14515
14404
14456
14376
14501
14412
14585
14477
14327


2024
3
1
18
58
45
0
1
O V
XPS

1486.7
300.0
1E37
1E37
1E37
1E37
FAT
50.00
5.0
2.800
1E37
2400
1200
1E37
1E37


-1
kinetic energy
eV
941.7
0.100
1
count rate
c/s
pulse counting
0.200
1
70E-9
1E37
1E37
1E37
0
201
75
3431
293
275
273
280
256
277
276
253
268
268
261
258
241
249
247
232
235
222
209
234
213
193
194
214
198
191
184
179
164
150
175
165
145
128
138
144
147
140
122
126
137
144
125
135
122
128
128
113
110
103
111
119
106
102
106
107
106
116
109
103
89
104
119
100
95
98
110
117
119
95
106
100
103
119
102
108
115
95
101
119
107
127
109
115
114
112
139
147
136
142
151
157
158
174
199
225
228
259
278
325
381
415
459
557
604
725
789
891
1013
1147
1308
1399
1538
1724
1902
2071
2242
2431
2572
2831
2932
2985
3174
3229
3347
3431
3417
3368
3375
3246
3127
2982
2893
2690
2504
2182
1995
1810
1609
1421
1272
1122
917
826
691
593
504
412
376
334
289
261
215
202
191
173
164
152
137
135
132
115
130
117
116
122
101
101
111
108
94
103
106
99
87
90
96
95
102
100
93
108
99
91
85
82
80
99
96
97
103
88
91
94
90
84
78
82
75
75
97
end of experiment
