Instrument:  EduRaman
The Light Source Type:  531.80nm laser/Tungsten lamp
Detector:  ERAM5X-1
Laser Power(%):  100%
Grating(g/mm):  
Slit Width:  50μm
Objective:  10x / 0.3NA
Acq. time(ms):  100
Accumulation:  1
Spectra_type:  
TimeSeq:  5
TimeCycle(ms):  100
Temperature:  -20.2℃
startPotential(V):  -0.200
pixel(2026/05/08 15:24:56)	wavelength(2026/05/08 15:24:56)	wavenumber(2026/05/08 15:24:56)	ramanshift(2026/05/08 15:24:56)	intensity(2026/05/08 15:24:56)
1	674.396	14828.08	3975.99	1120.000
2	674.261	14831.05	3973.01	1155.000
3	674.126	14834.03	3970.03	1147.000
4	673.990	14837.00	3967.06	1132.000
5	673.855	14839.98	3964.08	1129.000
6	673.720	14842.96	3961.10	1122.000
7	673.585	14845.95	3958.12	1150.000
8	673.449	14848.93	3955.13	1153.000
9	673.314	14851.91	3952.15	1118.000
10	673.179	14854.90	3949.17	1124.000
11	673.043	14857.88	3946.18	1121.000
12	672.908	14860.87	3943.19	1138.000
13	672.773	14863.86	3940.20	1153.000
14	672.638	14866.85	3937.21	1129.000
15	672.502	14869.84	3934.22	1125.000
16	672.367	14872.83	3931.23	1114.000
17	672.232	14875.82	3928.24	1119.000
18	672.096	14878.82	3925.24	1145.000
19	671.961	14881.82	3922.25	1137.000
20	671.826	14884.81	3919.25	1112.000
21	671.690	14887.81	3916.25	1129.000
22	671.555	14890.81	3913.25	1119.000
23	671.420	14893.81	3910.25	1140.000
24	671.285	14896.81	3907.25	1136.000
25	671.149	14899.82	3904.25	1115.000
26	671.014	14902.82	3901.24	1117.000
27	670.879	14905.82	3898.24	1120.000
28	670.743	14908.83	3895.23	1147.000
29	670.608	14911.84	3892.22	1141.000
30	670.473	14914.85	3889.21	1118.000
31	670.337	14917.86	3886.20	1111.000
32	670.202	14920.87	3883.19	1150.000
33	670.067	14923.88	3880.18	1137.000
34	669.932	14926.90	3877.16	1117.000
35	669.796	14929.91	3874.15	1126.000
36	669.661	14932.93	3871.13	1123.000
37	669.526	14935.95	3868.12	1138.000
38	669.390	14938.97	3865.10	1133.000
39	669.255	14941.99	3862.08	1118.000
40	669.120	14945.01	3859.06	1123.000
41	668.985	14948.03	3856.03	1109.000
42	668.849	14951.05	3853.01	1146.000
43	668.714	14954.08	3849.98	1148.000
44	668.579	14957.10	3846.96	1115.000
45	668.443	14960.13	3843.93	1129.000
46	668.308	14963.16	3840.90	1144.000
47	668.173	14966.19	3837.87	1148.000
48	668.037	14969.22	3834.84	1134.000
49	667.902	14972.25	3831.81	1124.000
50	667.767	14975.29	3828.78	1129.000
51	667.632	14978.32	3825.74	1124.000
52	667.496	14981.36	3822.70	1139.000
53	667.361	14984.39	3819.67	1149.000
54	667.226	14987.43	3816.63	1139.000
55	667.090	14990.47	3813.59	1129.000
56	666.955	14993.51	3810.55	1134.000
57	666.820	14996.56	3807.51	1133.000
58	666.684	14999.60	3804.46	1153.000
59	666.549	15002.64	3801.42	1152.000
60	666.414	15005.69	3798.37	1138.000
61	666.279	15008.74	3795.33	1129.000
62	666.143	15011.78	3792.28	1130.000
63	666.008	15014.83	3789.23	1171.000
64	665.873	15017.89	3786.18	1164.000
65	665.737	15020.94	3783.12	1136.000
66	665.602	15023.99	3780.07	1126.000
67	665.467	15027.05	3777.02	1134.000
68	665.332	15030.10	3773.96	1159.000
69	665.196	15033.16	3770.90	1151.000
70	665.061	15036.22	3767.85	1136.000
71	664.926	15039.28	3764.79	1139.000
72	664.790	15042.34	3761.73	1141.000
73	664.655	15045.40	3758.66	1161.000
74	664.520	15048.46	3755.60	1150.000
75	664.384	15051.53	3752.54	1126.000
76	664.249	15054.59	3749.47	1134.000
77	664.114	15057.66	3746.40	1137.000
78	663.979	15060.73	3743.33	1166.000
79	663.843	15063.80	3740.27	1150.000
80	663.708	15066.87	3737.19	1140.000
81	663.573	15069.94	3734.12	1143.000
82	663.437	15073.01	3731.05	1176.000
83	663.302	15076.09	3727.97	1152.000
84	663.167	15079.16	3724.90	1137.000
85	663.032	15082.24	3721.82	1142.000
86	662.896	15085.32	3718.74	1142.000
87	662.761	15088.40	3715.66	1159.000
88	662.626	15091.48	3712.58	1158.000
89	662.490	15094.56	3709.50	1130.000
90	662.355	15097.64	3706.42	1144.000
91	662.220	15100.73	3703.33	1177.000
92	662.084	15103.81	3700.25	1168.000
93	661.949	15106.90	3697.16	1155.000
94	661.814	15109.99	3694.07	1155.000
95	661.679	15113.08	3690.98	1175.000
96	661.543	15116.17	3687.89	1185.000
97	661.408	15119.26	3684.80	1164.000
98	661.273	15122.36	3681.71	1167.000
99	661.137	15125.45	3678.61	1167.000
100	661.002	15128.55	3675.52	1189.000
101	660.867	15131.64	3672.42	1198.000
102	660.731	15134.74	3669.32	1177.000
103	660.596	15137.84	3666.22	1185.000
104	660.461	15140.94	3663.12	1200.000
105	660.326	15144.04	3660.02	1218.000
106	660.190	15147.15	3656.91	1187.000
107	660.055	15150.25	3653.81	1202.000
108	659.920	15153.36	3650.70	1229.000
109	659.784	15156.47	3647.60	1226.000
110	659.649	15159.57	3644.49	1206.000
111	659.514	15162.68	3641.38	1211.000
112	659.379	15165.80	3638.27	1236.000
113	659.243	15168.91	3635.15	1250.000
114	659.108	15172.02	3632.04	1211.000
115	658.973	15175.14	3628.92	1222.000
116	658.837	15178.25	3625.81	1221.000
117	658.702	15181.37	3622.69	1238.000
118	658.567	15184.49	3619.57	1246.000
119	658.431	15187.61	3616.45	1235.000
120	658.296	15190.73	3613.33	1235.000
121	658.161	15193.85	3610.21	1259.000
122	658.026	15196.98	3607.08	1260.000
123	657.890	15200.10	3603.96	1261.000
124	657.755	15203.23	3600.83	1240.000
125	657.620	15206.36	3597.70	1245.000
126	657.484	15209.49	3594.57	1248.000
127	657.349	15212.62	3591.44	1280.000
128	657.214	15215.75	3588.31	1259.000
129	657.078	15218.88	3585.18	1250.000
130	656.943	15222.02	3582.05	1251.000
131	656.808	15225.15	3578.91	1280.000
132	656.673	15228.29	3575.77	1282.000
133	656.537	15231.43	3572.63	1273.000
134	656.402	15234.57	3569.49	1264.000
135	656.267	15237.71	3566.35	1302.000
136	656.131	15240.85	3563.21	1290.000
137	655.996	15243.99	3560.07	1281.000
138	655.861	15247.14	3556.92	1275.000
139	655.726	15250.28	3553.78	1278.000
140	655.590	15253.43	3550.63	1305.000
141	655.455	15256.58	3547.48	1309.000
142	655.320	15259.73	3544.33	1308.000
143	655.184	15262.88	3541.18	1293.000
144	655.049	15266.03	3538.03	1288.000
145	654.914	15269.19	3534.88	1324.000
146	654.778	15272.34	3531.72	1314.000
147	654.643	15275.50	3528.56	1306.000
148	654.508	15278.66	3525.41	1303.000
149	654.373	15281.81	3522.25	1330.000
150	654.237	15284.97	3519.09	1334.000
151	654.102	15288.14	3515.93	1313.000
152	653.967	15291.30	3512.76	1312.000
153	653.831	15294.46	3509.60	1327.000
154	653.696	15297.63	3506.43	1354.000
155	653.561	15300.80	3503.27	1342.000
156	653.425	15303.96	3500.10	1336.000
157	653.290	15307.13	3496.93	1339.000
158	653.155	15310.30	3493.76	1369.000
159	653.020	15313.48	3490.59	1357.000
160	652.884	15316.65	3487.41	1346.000
161	652.749	15319.82	3484.24	1348.000
162	652.614	15323.00	3481.06	1347.000
163	652.478	15326.18	3477.88	1378.000
164	652.343	15329.36	3474.71	1347.000
165	652.208	15332.54	3471.53	1365.000
166	652.073	15335.72	3468.34	1364.000
167	651.937	15338.90	3465.16	1391.000
168	651.802	15342.08	3461.98	1366.000
169	651.667	15345.27	3458.79	1360.000
170	651.531	15348.46	3455.61	1402.000
171	651.396	15351.64	3452.42	1398.000
172	651.261	15354.83	3449.23	1362.000
173	651.125	15358.02	3446.04	1374.000
174	650.990	15361.22	3442.85	1397.000
175	650.855	15364.41	3439.65	1393.000
176	650.720	15367.60	3436.46	1374.000
177	650.584	15370.80	3433.26	1383.000
178	650.449	15374.00	3430.07	1405.000
179	650.314	15377.19	3426.87	1396.000
180	650.178	15380.39	3423.67	1373.000
181	650.043	15383.60	3420.47	1376.000
182	649.908	15386.80	3417.26	1399.000
183	649.772	15390.00	3414.06	1403.000
184	649.637	15393.21	3410.85	1364.000
185	649.502	15396.41	3407.65	1364.000
186	649.367	15399.62	3404.44	1395.000
187	649.231	15402.83	3401.23	1392.000
188	649.096	15406.04	3398.02	1361.000
189	648.961	15409.25	3394.81	1370.000
190	648.825	15412.47	3391.60	1364.000
191	648.690	15415.68	3388.38	1386.000
192	648.555	15418.90	3385.16	1373.000
193	648.420	15422.11	3381.95	1368.000
194	648.284	15425.33	3378.73	1377.000
195	648.149	15428.55	3375.51	1385.000
196	648.014	15431.77	3372.29	1366.000
197	647.878	15435.00	3369.07	1350.000
198	647.743	15438.22	3365.84	1360.000
199	647.608	15441.45	3362.62	1372.000
200	647.472	15444.67	3359.39	1354.000
201	647.337	15447.90	3356.16	1351.000
202	647.202	15451.13	3352.93	1351.000
203	647.067	15454.36	3349.70	1371.000
204	646.931	15457.59	3346.47	1345.000
205	646.796	15460.83	3343.24	1348.000
206	646.661	15464.06	3340.00	1344.000
207	646.525	15467.30	3336.77	1370.000
208	646.390	15470.53	3333.53	1361.000
209	646.255	15473.77	3330.29	1337.000
210	646.120	15477.01	3327.05	1338.000
211	645.984	15480.25	3323.81	1333.000
212	645.849	15483.50	3320.56	1352.000
213	645.714	15486.74	3317.32	1345.000
214	645.578	15489.99	3314.07	1332.000
215	645.443	15493.23	3310.83	1327.000
216	645.308	15496.48	3307.58	1321.000
217	645.172	15499.73	3304.33	1348.000
218	645.037	15502.98	3301.08	1327.000
219	644.902	15506.24	3297.83	1329.000
220	644.767	15509.49	3294.57	1354.000
221	644.631	15512.74	3291.32	1355.000
222	644.496	15516.00	3288.06	1335.000
223	644.361	15519.26	3284.80	1330.000
224	644.225	15522.52	3281.54	1323.000
225	644.090	15525.78	3278.28	1333.000
226	643.955	15529.04	3275.02	1338.000
227	643.819	15532.30	3271.76	1326.000
228	643.684	15535.57	3268.49	1317.000
229	643.549	15538.84	3265.23	1315.000
230	643.414	15542.10	3261.96	1323.000
231	643.278	15545.37	3258.69	1338.000
232	643.143	15548.64	3255.42	1313.000
233	643.008	15551.91	3252.15	1327.000
234	642.872	15555.19	3248.88	1330.000
235	642.737	15558.46	3245.60	1334.000
236	642.602	15561.74	3242.33	1324.000
237	642.467	15565.01	3239.05	1321.000
238	642.331	15568.29	3235.77	1310.000
239	642.196	15571.57	3232.49	1312.000
240	642.061	15574.85	3229.21	1329.000
241	641.925	15578.14	3225.93	1322.000
242	641.790	15581.42	3222.64	1304.000
243	641.655	15584.71	3219.36	1300.000
244	641.519	15587.99	3216.07	1329.000
245	641.384	15591.28	3212.78	1334.000
246	641.249	15594.57	3209.49	1294.000
247	641.114	15597.86	3206.20	1295.000
248	640.978	15601.15	3202.91	1310.000
249	640.843	15604.45	3199.61	1309.000
250	640.708	15607.74	3196.32	1291.000
251	640.572	15611.04	3193.02	1275.000
252	640.437	15614.34	3189.73	1286.000
253	640.302	15617.64	3186.43	1298.000
254	640.166	15620.94	3183.13	1288.000
255	640.031	15624.24	3179.82	1264.000
256	639.896	15627.54	3176.52	1267.000
257	639.761	15630.85	3173.21	1255.000
258	639.625	15634.15	3169.91	1275.000
259	639.490	15637.46	3166.60	1235.000
260	639.355	15640.77	3163.29	1247.000
261	639.219	15644.08	3159.98	1267.000
262	639.084	15647.39	3156.67	1261.000
263	638.949	15650.71	3153.36	1247.000
264	638.814	15654.02	3150.04	1220.000
265	638.678	15657.34	3146.72	1228.000
266	638.543	15660.65	3143.41	1215.000
267	638.408	15663.97	3140.09	1245.000
268	638.272	15667.29	3136.77	1225.000
269	638.137	15670.62	3133.45	1209.000
270	638.002	15673.94	3130.12	1232.000
271	637.866	15677.26	3126.80	1222.000
272	637.731	15680.59	3123.47	1199.000
273	637.596	15683.92	3120.15	1199.000
274	637.461	15687.25	3116.82	1192.000
275	637.325	15690.58	3113.49	1225.000
276	637.190	15693.91	3110.15	1206.000
277	637.055	15697.24	3106.82	1197.000
278	636.919	15700.57	3103.49	1194.000
279	636.784	15703.91	3100.15	1221.000
280	636.649	15707.25	3096.81	1185.000
281	636.513	15710.59	3093.48	1187.000
282	636.378	15713.93	3090.14	1188.000
283	636.243	15717.27	3086.79	1205.000
284	636.108	15720.61	3083.45	1196.000
285	635.972	15723.96	3080.11	1184.000
286	635.837	15727.30	3076.76	1175.000
287	635.702	15730.65	3073.41	1178.000
288	635.566	15734.00	3070.06	1198.000
289	635.431	15737.35	3066.71	1187.000
290	635.296	15740.70	3063.36	1173.000
291	635.161	15744.05	3060.01	1171.000
292	635.025	15747.41	3056.66	1194.000
293	634.890	15750.76	3053.30	1192.000
294	634.755	15754.12	3049.94	1170.000
295	634.619	15757.48	3046.58	1163.000
296	634.484	15760.84	3043.22	1153.000
297	634.349	15764.20	3039.86	1185.000
298	634.213	15767.56	3036.50	1159.000
299	634.078	15770.93	3033.14	1160.000
300	633.943	15774.29	3029.77	1169.000
301	633.808	15777.66	3026.40	1190.000
302	633.672	15781.03	3023.03	1139.000
303	633.537	15784.40	3019.66	1151.000
304	633.402	15787.77	3016.29	1141.000
305	633.266	15791.14	3012.92	1173.000
306	633.131	15794.52	3009.54	1179.000
307	632.996	15797.89	3006.17	1140.000
308	632.860	15801.27	3002.79	1159.000
309	632.725	15804.65	2999.41	1163.000
310	632.590	15808.03	2996.03	1140.000
311	632.455	15811.41	2992.65	1145.000
312	632.319	15814.79	2989.27	1147.000
313	632.184	15818.18	2985.88	1166.000
314	632.049	15821.57	2982.50	1156.000
315	631.913	15824.95	2979.11	1143.000
316	631.778	15828.34	2975.72	1152.000
317	631.643	15831.73	2972.33	1173.000
318	631.508	15835.12	2968.94	1136.000
319	631.372	15838.52	2965.54	1143.000
320	631.237	15841.91	2962.15	1168.000
321	631.102	15845.31	2958.75	1163.000
322	630.966	15848.71	2955.36	1137.000
323	630.831	15852.10	2951.96	1138.000
324	630.696	15855.51	2948.56	1146.000
325	630.560	15858.91	2945.15	1171.000
326	630.425	15862.31	2941.75	1149.000
327	630.290	15865.72	2938.35	1169.000
328	630.155	15869.12	2934.94	1170.000
329	630.019	15872.53	2931.53	1191.000
330	629.884	15875.94	2928.12	1182.000
331	629.749	15879.35	2924.71	1174.000
332	629.613	15882.76	2921.30	1173.000
333	629.478	15886.18	2917.89	1172.000
334	629.343	15889.59	2914.47	1201.000
335	629.208	15893.01	2911.05	1168.000
336	629.072	15896.43	2907.64	1166.000
337	628.937	15899.85	2904.22	1190.000
338	628.802	15903.27	2900.79	1192.000
339	628.666	15906.69	2897.37	1172.000
340	628.531	15910.11	2893.95	1172.000
341	628.396	15913.54	2890.52	1174.000
342	628.260	15916.97	2887.10	1207.000
343	628.125	15920.39	2883.67	1178.000
344	627.990	15923.82	2880.24	1166.000
345	627.855	15927.26	2876.81	1167.000
346	627.719	15930.69	2873.37	1194.000
347	627.584	15934.12	2869.94	1171.000
348	627.449	15937.56	2866.50	1172.000
349	627.313	15941.00	2863.07	1173.000
350	627.178	15944.44	2859.63	1202.000
351	627.043	15947.88	2856.19	1177.000
352	626.907	15951.32	2852.74	1170.000
353	626.772	15954.76	2849.30	1183.000
354	626.637	15958.21	2845.86	1191.000
355	626.502	15961.65	2842.41	1187.000
356	626.366	15965.10	2838.96	1151.000
357	626.231	15968.55	2835.51	1139.000
358	626.096	15972.00	2832.06	1141.000
359	625.960	15975.45	2828.61	1135.000
360	625.825	15978.91	2825.16	1129.000
361	625.690	15982.36	2821.70	1111.000
362	625.555	15985.82	2818.24	1109.000
363	625.419	15989.28	2814.79	1138.000
364	625.284	15992.74	2811.33	1114.000
365	625.149	15996.20	2807.87	1099.000
366	625.013	15999.66	2804.40	1105.000
367	624.878	16003.12	2800.94	1120.000
368	624.743	16006.59	2797.47	1113.000
369	624.607	16010.06	2794.01	1090.000
370	624.472	16013.52	2790.54	1108.000
371	624.337	16016.99	2787.07	1132.000
372	624.202	16020.47	2783.60	1124.000
373	624.066	16023.94	2780.12	1102.000
374	623.931	16027.41	2776.65	1092.000
375	623.796	16030.89	2773.17	1109.000
376	623.660	16034.37	2769.69	1129.000
377	623.525	16037.85	2766.21	1106.000
378	623.390	16041.33	2762.73	1099.000
379	623.254	16044.81	2759.25	1122.000
380	623.119	16048.29	2755.77	1125.000
381	622.984	16051.78	2752.28	1104.000
382	622.849	16055.27	2748.80	1100.000
383	622.713	16058.75	2745.31	1097.000
384	622.578	16062.24	2741.82	1134.000
385	622.443	16065.74	2738.33	1104.000
386	622.307	16069.23	2734.83	1104.000
387	622.172	16072.72	2731.34	1107.000
388	622.037	16076.22	2727.84	1127.000
389	621.902	16079.72	2724.35	1121.000
390	621.766	16083.22	2720.85	1104.000
391	621.631	16086.72	2717.35	1109.000
392	621.496	16090.22	2713.84	1105.000
393	621.360	16093.72	2710.34	1120.000
394	621.225	16097.23	2706.84	1115.000
395	621.090	16100.73	2703.33	1098.000
396	620.954	16104.24	2699.82	1089.000
397	620.819	16107.75	2696.31	1123.000
398	620.684	16111.26	2692.80	1103.000
399	620.549	16114.77	2689.29	1097.000
400	620.413	16118.29	2685.77	1101.000
401	620.278	16121.80	2682.26	1120.000
402	620.143	16125.32	2678.74	1116.000
403	620.007	16128.84	2675.22	1089.000
404	619.872	16132.36	2671.70	1086.000
405	619.737	16135.88	2668.18	1119.000
406	619.601	16139.41	2664.66	1107.000
407	619.466	16142.93	2661.13	1082.000
408	619.331	16146.46	2657.60	1078.000
409	619.196	16149.99	2654.08	1097.000
410	619.060	16153.52	2650.55	1099.000
411	618.925	16157.05	2647.02	1108.000
412	618.790	16160.58	2643.48	1087.000
413	618.654	16164.11	2639.95	1081.000
414	618.519	16167.65	2636.41	1111.000
415	618.384	16171.19	2632.88	1109.000
416	618.249	16174.73	2629.34	1084.000
417	618.113	16178.27	2625.80	1081.000
418	617.978	16181.81	2622.25	1109.000
419	617.843	16185.35	2618.71	1104.000
420	617.707	16188.90	2615.17	1082.000
421	617.572	16192.44	2611.62	1078.000
422	617.437	16195.99	2608.07	1070.000
423	617.301	16199.54	2604.52	1093.000
424	617.166	16203.09	2600.97	1102.000
425	617.031	16206.64	2597.42	1078.000
426	616.896	16210.20	2593.86	1077.000
427	616.760	16213.76	2590.31	1100.000
428	616.625	16217.31	2586.75	1095.000
429	616.490	16220.87	2583.19	1077.000
430	616.354	16224.43	2579.63	1074.000
431	616.219	16227.99	2576.07	1072.000
432	616.084	16231.56	2572.50	1096.000
433	615.948	16235.12	2568.94	1074.000
434	615.813	16238.69	2565.37	1067.000
435	615.678	16242.26	2561.80	1082.000
436	615.543	16245.83	2558.23	1096.000
437	615.407	16249.40	2554.66	1092.000
438	615.272	16252.97	2551.09	1067.000
439	615.137	16256.55	2547.51	1074.000
440	615.001	16260.13	2543.94	1073.000
441	614.866	16263.70	2540.36	1096.000
442	614.731	16267.28	2536.78	1067.000
443	614.596	16270.86	2533.20	1069.000
444	614.460	16274.45	2529.62	1064.000
445	614.325	16278.03	2526.03	1092.000
446	614.190	16281.62	2522.45	1085.000
447	614.054	16285.20	2518.86	1066.000
448	613.919	16288.79	2515.27	1062.000
449	613.784	16292.38	2511.68	1080.000
450	613.648	16295.98	2508.09	1083.000
451	613.513	16299.57	2504.49	1066.000
452	613.378	16303.16	2500.90	1065.000
453	613.243	16306.76	2497.30	1090.000
454	613.107	16310.36	2493.70	1086.000
455	612.972	16313.96	2490.10	1075.000
456	612.837	16317.56	2486.50	1066.000
457	612.701	16321.16	2482.90	1070.000
458	612.566	16324.77	2479.29	1094.000
459	612.431	16328.38	2475.69	1087.000
460	612.296	16331.98	2472.08	1070.000
461	612.160	16335.59	2468.47	1059.000
462	612.025	16339.20	2464.86	1087.000
463	611.890	16342.82	2461.24	1081.000
464	611.754	16346.43	2457.63	1054.000
465	611.619	16350.05	2454.01	1052.000
466	611.484	16353.67	2450.40	1079.000
467	611.348	16357.28	2446.78	1068.000
468	611.213	16360.90	2443.16	1041.000
469	611.078	16364.53	2439.53	1056.000
470	610.943	16368.15	2435.91	1070.000
471	610.807	16371.78	2432.28	1080.000
472	610.672	16375.40	2428.66	1050.000
473	610.537	16379.03	2425.03	1059.000
474	610.401	16382.66	2421.40	1065.000
475	610.266	16386.30	2417.77	1079.000
476	610.131	16389.93	2414.13	1044.000
477	609.995	16393.56	2410.50	1049.000
478	609.860	16397.20	2406.86	1084.000
479	609.725	16400.84	2403.22	1077.000
480	609.590	16404.48	2399.58	1067.000
481	609.454	16408.12	2395.94	1049.000
482	609.319	16411.76	2392.30	1043.000
483	609.184	16415.41	2388.65	1064.000
484	609.048	16419.06	2385.01	1078.000
485	608.913	16422.70	2381.36	1046.000
486	608.778	16426.35	2377.71	1051.000
487	608.643	16430.01	2374.06	1070.000
488	608.507	16433.66	2370.40	1069.000
489	608.372	16437.31	2366.75	1043.000
490	608.237	16440.97	2363.09	1053.000
491	608.101	16444.63	2359.43	1073.000
492	607.966	16448.29	2355.77	1069.000
493	607.831	16451.95	2352.11	1045.000
494	607.695	16455.61	2348.45	1045.000
495	607.560	16459.28	2344.79	1051.000
496	607.425	16462.94	2341.12	1056.000
497	607.290	16466.61	2337.45	1051.000
498	607.154	16470.28	2333.78	1044.000
499	607.019	16473.95	2330.11	1045.000
500	606.884	16477.62	2326.44	1062.000
501	606.748	16481.30	2322.76	1062.000
502	606.613	16484.97	2319.09	1045.000
503	606.478	16488.65	2315.41	1050.000
504	606.342	16492.33	2311.73	1042.000
505	606.207	16496.01	2308.05	1061.000
506	606.072	16499.69	2304.37	1066.000
507	605.937	16503.38	2300.68	1043.000
508	605.801	16507.06	2297.00	1040.000
509	605.666	16510.75	2293.31	1040.000
510	605.531	16514.44	2289.62	1066.000
511	605.395	16518.13	2285.93	1039.000
512	605.260	16521.82	2282.24	1049.000
513	605.125	16525.52	2278.55	1044.000
514	604.990	16529.21	2274.85	1068.000
515	604.854	16532.91	2271.15	1060.000
516	604.719	16536.61	2267.45	1048.000
517	604.584	16540.31	2263.75	1030.000
518	604.448	16544.01	2260.05	1033.000
519	604.313	16547.72	2256.35	1070.000
520	604.178	16551.42	2252.64	1061.000
521	604.042	16555.13	2248.93	1030.000
522	603.907	16558.84	2245.22	1041.000
523	603.772	16562.55	2241.51	1065.000
524	603.637	16566.26	2237.80	1061.000
525	603.501	16569.97	2234.09	1054.000
526	603.366	16573.69	2230.37	1044.000
527	603.231	16577.41	2226.66	1034.000
528	603.095	16581.13	2222.94	1067.000
529	602.960	16584.85	2219.22	1064.000
530	602.825	16588.57	2215.49	1043.000
531	602.689	16592.29	2211.77	1035.000
532	602.554	16596.02	2208.04	1046.000
533	602.419	16599.74	2204.32	1061.000
534	602.284	16603.47	2200.59	1044.000
535	602.148	16607.20	2196.86	1048.000
536	602.013	16610.94	2193.12	1067.000
537	601.878	16614.67	2189.39	1065.000
538	601.742	16618.41	2185.66	1028.000
539	601.607	16622.14	2181.92	1028.000
540	601.472	16625.88	2178.18	1037.000
541	601.337	16629.62	2174.44	1060.000
542	601.201	16633.37	2170.70	1051.000
543	601.066	16637.11	2166.95	1038.000
544	600.931	16640.86	2163.21	1036.000
545	600.795	16644.60	2159.46	1028.000
546	600.660	16648.35	2155.71	1045.000
547	600.525	16652.10	2151.96	1026.000
548	600.389	16655.86	2148.21	1037.000
549	600.254	16659.61	2144.45	1060.000
550	600.119	16663.37	2140.70	1065.000
551	599.984	16667.12	2136.94	1038.000
552	599.848	16670.88	2133.18	1037.000
553	599.713	16674.64	2129.42	1033.000
554	599.578	16678.41	2125.66	1052.000
555	599.442	16682.17	2121.89	1051.000
556	599.307	16685.94	2118.13	1028.000
557	599.172	16689.70	2114.36	1032.000
558	599.036	16693.47	2110.59	1030.000
559	598.901	16697.24	2106.82	1053.000
560	598.766	16701.02	2103.04	1043.000
561	598.631	16704.79	2099.27	1034.000
562	598.495	16708.57	2095.49	1036.000
563	598.360	16712.35	2091.71	1061.000
564	598.225	16716.13	2087.94	1055.000
565	598.089	16719.91	2084.15	1042.000
566	597.954	16723.69	2080.37	1027.000
567	597.819	16727.48	2076.59	1056.000
568	597.684	16731.26	2072.80	1056.000
569	597.548	16735.05	2069.01	1025.000
570	597.413	16738.84	2065.22	1030.000
571	597.278	16742.63	2061.43	1026.000
572	597.142	16746.43	2057.64	1047.000
573	597.007	16750.22	2053.84	1047.000
574	596.872	16754.02	2050.04	1032.000
575	596.736	16757.82	2046.25	1031.000
576	596.601	16761.62	2042.45	1049.000
577	596.466	16765.42	2038.64	1033.000
578	596.331	16769.22	2034.84	1025.000
579	596.195	16773.03	2031.03	1023.000
580	596.060	16776.84	2027.23	1047.000
581	595.925	16780.64	2023.42	1051.000
582	595.789	16784.45	2019.61	1025.000
583	595.654	16788.27	2015.79	1026.000
584	595.519	16792.08	2011.98	1055.000
585	595.384	16795.90	2008.16	1054.000
586	595.248	16799.71	2004.35	1025.000
587	595.113	16803.53	2000.53	1022.000
588	594.978	16807.36	1996.71	1025.000
589	594.842	16811.18	1992.88	1057.000
590	594.707	16815.00	1989.06	1034.000
591	594.572	16818.83	1985.23	1029.000
592	594.436	16822.66	1981.40	1030.000
593	594.301	16826.49	1977.58	1054.000
594	594.166	16830.32	1973.74	1047.000
595	594.031	16834.15	1969.91	1018.000
596	593.895	16837.99	1966.08	1026.000
597	593.760	16841.82	1962.24	1020.000
598	593.625	16845.66	1958.40	1048.000
599	593.489	16849.50	1954.56	1038.000
600	593.354	16853.34	1950.72	1023.000
601	593.219	16857.19	1946.87	1019.000
602	593.083	16861.03	1943.03	1051.000
603	592.948	16864.88	1939.18	1045.000
604	592.813	16868.73	1935.33	1031.000
605	592.678	16872.58	1931.48	1026.000
606	592.542	16876.43	1927.63	1048.000
607	592.407	16880.29	1923.77	1051.000
608	592.272	16884.14	1919.92	1021.000
609	592.136	16888.00	1916.06	1020.000
610	592.001	16891.86	1912.20	1044.000
611	591.866	16895.72	1908.34	1035.000
612	591.731	16899.58	1904.48	1032.000
613	591.595	16903.45	1900.61	1024.000
614	591.460	16907.32	1896.75	1017.000
615	591.325	16911.18	1892.88	1043.000
616	591.189	16915.06	1889.01	1039.000
617	591.054	16918.93	1885.13	1021.000
618	590.919	16922.80	1881.26	1018.000
619	590.783	16926.68	1877.39	1026.000
620	590.648	16930.55	1873.51	1052.000
621	590.513	16934.43	1869.63	1033.000
622	590.378	16938.31	1865.75	1027.000
623	590.242	16942.20	1861.87	1022.000
624	590.107	16946.08	1857.98	1048.000
625	589.972	16949.97	1854.09	1031.000
626	589.836	16953.85	1850.21	1029.000
627	589.701	16957.74	1846.32	1020.000
628	589.566	16961.64	1842.43	1038.000
629	589.430	16965.53	1838.53	1017.000
630	589.295	16969.42	1834.64	1024.000
631	589.160	16973.32	1830.74	1022.000
632	589.025	16977.22	1826.84	1045.000
633	588.889	16981.12	1822.94	1045.000
634	588.754	16985.02	1819.04	1027.000
635	588.619	16988.93	1815.13	1023.000
636	588.483	16992.83	1811.23	1033.000
637	588.348	16996.74	1807.32	1044.000
638	588.213	17000.65	1803.41	1013.000
639	588.078	17004.56	1799.50	1016.000
640	587.942	17008.47	1795.59	1026.000
641	587.807	17012.39	1791.67	1047.000
642	587.672	17016.31	1787.76	1026.000
643	587.536	17020.22	1783.84	1013.000
644	587.401	17024.14	1779.92	1025.000
645	587.266	17028.07	1776.00	1054.000
646	587.130	17031.99	1772.07	1046.000
647	586.995	17035.92	1768.15	1015.000
648	586.860	17039.84	1764.22	1024.000
649	586.725	17043.77	1760.29	1022.000
650	586.589	17047.70	1756.36	1039.000
651	586.454	17051.64	1752.42	1006.000
652	586.319	17055.57	1748.49	1020.000
653	586.183	17059.51	1744.55	1017.000
654	586.048	17063.45	1740.62	1049.000
655	585.913	17067.39	1736.67	1025.000
656	585.777	17071.33	1732.73	1017.000
657	585.642	17075.27	1728.79	1028.000
658	585.507	17079.22	1724.84	1052.000
659	585.372	17083.17	1720.90	1052.000
660	585.236	17087.12	1716.95	1023.000
661	585.101	17091.07	1713.00	1019.000
662	584.966	17095.02	1709.04	1031.000
663	584.830	17098.97	1705.09	1051.000
664	584.695	17102.93	1701.13	1052.000
665	584.560	17106.89	1697.17	1023.000
666	584.425	17110.85	1693.21	1027.000
667	584.289	17114.81	1689.25	1032.000
668	584.154	17118.78	1685.29	1055.000
669	584.019	17122.74	1681.32	1047.000
670	583.883	17126.71	1677.35	1029.000
671	583.748	17130.68	1673.38	1032.000
672	583.613	17134.65	1669.41	1067.000
673	583.477	17138.62	1665.44	1070.000
674	583.342	17142.60	1661.46	1053.000
675	583.207	17146.57	1657.49	1055.000
676	583.072	17150.55	1653.51	1102.000
677	582.936	17154.53	1649.53	1111.000
678	582.801	17158.52	1645.55	1100.000
679	582.666	17162.50	1641.56	1118.000
680	582.530	17166.49	1637.58	1131.000
681	582.395	17170.47	1633.59	1137.000
682	582.260	17174.46	1629.60	1105.000
683	582.124	17178.46	1625.61	1110.000
684	581.989	17182.45	1621.61	1137.000
685	581.854	17186.44	1617.62	1153.000
686	581.719	17190.44	1613.62	1147.000
687	581.583	17194.44	1609.62	1114.000
688	581.448	17198.44	1605.62	1095.000
689	581.313	17202.44	1601.62	1117.000
690	581.177	17206.45	1597.61	1094.000
691	581.042	17210.46	1593.61	1111.000
692	580.907	17214.46	1589.60	1108.000
693	580.772	17218.47	1585.59	1120.000
694	580.636	17222.49	1581.57	1112.000
695	580.501	17226.50	1577.56	1073.000
696	580.366	17230.52	1573.54	1060.000
697	580.230	17234.53	1569.53	1072.000
698	580.095	17238.55	1565.51	1071.000
699	579.960	17242.58	1561.49	1050.000
700	579.824	17246.60	1557.46	1054.000
701	579.689	17250.62	1553.44	1070.000
702	579.554	17254.65	1549.41	1082.000
703	579.419	17258.68	1545.38	1076.000
704	579.283	17262.71	1541.35	1061.000
705	579.148	17266.74	1537.32	1043.000
706	579.013	17270.78	1533.28	1073.000
707	578.877	17274.82	1529.25	1070.000
708	578.742	17278.85	1525.21	1038.000
709	578.607	17282.89	1521.17	1049.000
710	578.472	17286.94	1517.13	1056.000
711	578.336	17290.98	1513.08	1068.000
712	578.201	17295.03	1509.04	1061.000
713	578.066	17299.07	1504.99	1065.000
714	577.930	17303.12	1500.94	1062.000
715	577.795	17307.18	1496.89	1110.000
716	577.660	17311.23	1492.83	1110.000
717	577.524	17315.28	1488.78	1096.000
718	577.389	17319.34	1484.72	1076.000
719	577.254	17323.40	1480.66	1067.000
720	577.119	17327.46	1476.60	1086.000
721	576.983	17331.53	1472.54	1088.000
722	576.848	17335.59	1468.47	1060.000
723	576.713	17339.66	1464.40	1058.000
724	576.577	17343.73	1460.34	1093.000
725	576.442	17347.80	1456.26	1084.000
726	576.307	17351.87	1452.19	1060.000
727	576.171	17355.94	1448.12	1063.000
728	576.036	17360.02	1444.04	1071.000
729	575.901	17364.10	1439.96	1075.000
730	575.766	17368.18	1435.88	1056.000
731	575.630	17372.26	1431.80	1068.000
732	575.495	17376.35	1427.72	1066.000
733	575.360	17380.43	1423.63	1074.000
734	575.224	17384.52	1419.54	1075.000
735	575.089	17388.61	1415.45	1063.000
736	574.954	17392.70	1411.36	1068.000
737	574.819	17396.80	1407.27	1085.000
738	574.683	17400.89	1403.17	1061.000
739	574.548	17404.99	1399.07	1074.000
740	574.413	17409.09	1394.97	1062.000
741	574.277	17413.19	1390.87	1095.000
742	574.142	17417.29	1386.77	1065.000
743	574.007	17421.40	1382.66	1066.000
744	573.871	17425.51	1378.56	1073.000
745	573.736	17429.61	1374.45	1106.000
746	573.601	17433.73	1370.34	1109.000
747	573.466	17437.84	1366.22	1102.000
748	573.330	17441.95	1362.11	1105.000
749	573.195	17446.07	1357.99	1120.000
750	573.060	17450.19	1353.87	1110.000
751	572.924	17454.31	1349.75	1087.000
752	572.789	17458.43	1345.63	1090.000
753	572.654	17462.56	1341.50	1103.000
754	572.518	17466.69	1337.38	1089.000
755	572.383	17470.81	1333.25	1058.000
756	572.248	17474.94	1329.12	1055.000
757	572.113	17479.08	1324.98	1079.000
758	571.977	17483.21	1320.85	1073.000
759	571.842	17487.35	1316.71	1041.000
760	571.707	17491.49	1312.58	1041.000
761	571.571	17495.63	1308.43	1062.000
762	571.436	17499.77	1304.29	1065.000
763	571.301	17503.91	1300.15	1048.000
764	571.166	17508.06	1296.00	1056.000
765	571.030	17512.21	1291.85	1044.000
766	570.895	17516.36	1287.70	1065.000
767	570.760	17520.51	1283.55	1031.000
768	570.624	17524.66	1279.40	1031.000
769	570.489	17528.82	1275.24	1035.000
770	570.354	17532.98	1271.08	1043.000
771	570.218	17537.14	1266.92	1018.000
772	570.083	17541.30	1262.76	1034.000
773	569.948	17545.46	1258.60	1056.000
774	569.813	17549.63	1254.43	1049.000
775	569.677	17553.80	1250.26	1018.000
776	569.542	17557.97	1246.09	1024.000
777	569.407	17562.14	1241.92	1025.000
778	569.271	17566.31	1237.75	1043.000
779	569.136	17570.49	1233.57	1047.000
780	569.001	17574.67	1229.39	1025.000
781	568.865	17578.85	1225.21	1029.000
782	568.730	17583.03	1221.03	1060.000
783	568.595	17587.21	1216.85	1064.000
784	568.460	17591.40	1212.66	1048.000
785	568.324	17595.59	1208.47	1041.000
786	568.189	17599.78	1204.28	1033.000
787	568.054	17603.97	1200.09	1064.000
788	567.918	17608.16	1195.90	1063.000
789	567.783	17612.36	1191.70	1035.000
790	567.648	17616.56	1187.51	1040.000
791	567.513	17620.76	1183.31	1059.000
792	567.377	17624.96	1179.10	1077.000
793	567.242	17629.16	1174.90	1051.000
794	567.107	17633.37	1170.69	1055.000
795	566.971	17637.58	1166.49	1051.000
796	566.836	17641.79	1162.28	1062.000
797	566.701	17646.00	1158.06	1041.000
798	566.565	17650.21	1153.85	1033.000
799	566.430	17654.43	1149.63	1029.000
800	566.295	17658.65	1145.42	1052.000
801	566.160	17662.87	1141.20	1063.000
802	566.024	17667.09	1136.97	1034.000
803	565.889	17671.31	1132.75	1044.000
804	565.754	17675.54	1128.52	1054.000
805	565.618	17679.76	1124.30	1057.000
806	565.483	17683.99	1120.07	1035.000
807	565.348	17688.23	1115.83	1031.000
808	565.212	17692.46	1111.60	1024.000
809	565.077	17696.70	1107.36	1050.000
810	564.942	17700.94	1103.13	1041.000
811	564.807	17705.18	1098.89	1026.000
812	564.671	17709.42	1094.64	1033.000
813	564.536	17713.66	1090.40	1049.000
814	564.401	17717.91	1086.15	1044.000
815	564.265	17722.16	1081.91	1033.000
816	564.130	17726.41	1077.66	1039.000
817	563.995	17730.66	1073.40	1054.000
818	563.860	17734.91	1069.15	1063.000
819	563.724	17739.17	1064.89	1042.000
820	563.589	17743.43	1060.63	1052.000
821	563.454	17747.69	1056.37	1084.000
822	563.318	17751.95	1052.11	1080.000
823	563.183	17756.22	1047.85	1057.000
824	563.048	17760.48	1043.58	1043.000
825	562.912	17764.75	1039.31	1043.000
826	562.777	17769.02	1035.04	1059.000
827	562.642	17773.30	1030.77	1033.000
828	562.507	17777.57	1026.49	1026.000
829	562.371	17781.85	1022.21	1032.000
830	562.236	17786.13	1017.94	1049.000
831	562.101	17790.41	1013.65	1036.000
832	561.965	17794.69	1009.37	1010.000
833	561.830	17798.98	1005.09	1023.000
834	561.695	17803.26	1000.80	1028.000
835	561.560	17807.55	996.51	1051.000
836	561.424	17811.84	992.22	1014.000
837	561.289	17816.14	987.92	1023.000
838	561.154	17820.43	983.63	1025.000
839	561.018	17824.73	979.33	1050.000
840	560.883	17829.03	975.03	1035.000
841	560.748	17833.33	970.73	1024.000
842	560.612	17837.64	966.43	1019.000
843	560.477	17841.94	962.12	1039.000
844	560.342	17846.25	957.81	1003.000
845	560.207	17850.56	953.50	1008.000
846	560.071	17854.87	949.19	1011.000
847	559.936	17859.19	944.88	1037.000
848	559.801	17863.50	940.56	1022.000
849	559.665	17867.82	936.24	1016.000
850	559.530	17872.14	931.92	1038.000
851	559.395	17876.46	927.60	1043.000
852	559.259	17880.79	923.27	1014.000
853	559.124	17885.11	918.95	1017.000
854	558.989	17889.44	914.62	1019.000
855	558.854	17893.77	910.29	1037.000
856	558.718	17898.11	905.95	1018.000
857	558.583	17902.44	901.62	1022.000
858	558.448	17906.78	897.28	1042.000
859	558.312	17911.12	892.94	1043.000
860	558.177	17915.46	888.60	1026.000
861	558.042	17919.80	884.26	1016.000
862	557.907	17924.15	879.91	1020.000
863	557.771	17928.50	875.56	1036.000
864	557.636	17932.85	871.21	1030.000
865	557.501	17937.20	866.86	1012.000
866	557.365	17941.55	862.51	1009.000
867	557.230	17945.91	858.15	1026.000
868	557.095	17950.27	853.79	1011.000
869	556.959	17954.63	849.43	1009.000
870	556.824	17958.99	845.07	1003.000
871	556.689	17963.36	840.71	1020.000
872	556.554	17967.72	836.34	1026.000
873	556.418	17972.09	831.97	1010.000
874	556.283	17976.46	827.60	1009.000
875	556.148	17980.84	823.23	998.000
876	556.012	17985.21	818.85	1033.000
877	555.877	17989.59	814.47	1043.000
878	555.742	17993.97	810.09	1007.000
879	555.606	17998.35	805.71	1016.000
880	555.471	18002.73	801.33	1030.000
881	555.336	18007.12	796.94	1045.000
882	555.201	18011.51	792.55	1019.000
883	555.065	18015.90	788.16	1018.000
884	554.930	18020.29	783.77	1018.000
885	554.795	18024.69	779.38	1032.000
886	554.659	18029.08	774.98	1005.000
887	554.524	18033.48	770.58	1000.000
888	554.389	18037.88	766.18	998.000
889	554.254	18042.29	761.78	1028.000
890	554.118	18046.69	757.37	1020.000
891	553.983	18051.10	752.96	1014.000
892	553.848	18055.51	748.55	1016.000
893	553.712	18059.92	744.14	1025.000
894	553.577	18064.33	739.73	1006.000
895	553.442	18068.75	735.31	1002.000
896	553.306	18073.17	730.89	1001.000
897	553.171	18077.59	726.47	1033.000
898	553.036	18082.01	722.05	1023.000
899	552.901	18086.44	717.63	1004.000
900	552.765	18090.86	713.20	1004.000
901	552.630	18095.29	708.77	1028.000
902	552.495	18099.72	704.34	994.000
903	552.359	18104.16	699.91	1002.000
904	552.224	18108.59	695.47	1002.000
905	552.089	18113.03	691.03	1030.000
906	551.953	18117.47	686.59	1021.000
907	551.818	18121.91	682.15	1003.000
908	551.683	18126.36	677.71	1008.000
909	551.548	18130.80	673.26	1036.000
910	551.412	18135.25	668.81	1039.000
911	551.277	18139.70	664.36	1028.000
912	551.142	18144.15	659.91	1015.000
913	551.006	18148.61	655.45	1010.000
914	550.871	18153.07	651.00	1032.000
915	550.736	18157.53	646.54	1030.000
916	550.601	18161.99	642.07	1005.000
917	550.465	18166.45	637.61	1015.000
918	550.330	18170.92	633.14	1014.000
919	550.195	18175.39	628.68	1045.000
920	550.059	18179.86	624.20	1031.000
921	549.924	18184.33	619.73	1012.000
922	549.789	18188.80	615.26	1021.000
923	549.653	18193.28	610.78	1026.000
924	549.518	18197.76	606.30	1042.000
925	549.383	18202.24	601.82	1035.000
926	549.248	18206.73	597.34	1048.000
927	549.112	18211.21	592.85	1051.000
928	548.977	18215.70	588.36	1070.000
929	548.842	18220.19	583.87	1069.000
930	548.706	18224.68	579.38	1030.000
931	548.571	18229.18	574.88	1030.000
932	548.436	18233.68	570.39	1024.000
933	548.300	18238.17	565.89	1046.000
934	548.165	18242.68	561.39	1042.000
935	548.030	18247.18	556.88	1011.000
936	547.895	18251.69	552.38	1017.000
937	547.759	18256.19	547.87	1025.000
938	547.624	18260.70	543.36	1044.000
939	547.489	18265.22	538.85	1019.000
940	547.353	18269.73	534.33	1025.000
941	547.218	18274.25	529.81	1045.000
942	547.083	18278.77	525.29	1044.000
943	546.948	18283.29	520.77	1016.000
944	546.812	18287.81	516.25	1015.000
945	546.677	18292.34	511.72	1030.000
946	546.542	18296.87	507.19	1034.000
947	546.406	18301.40	502.66	1013.000
948	546.271	18305.93	498.13	1010.000
949	546.136	18310.47	493.60	1036.000
950	546.000	18315.00	489.06	1032.000
951	545.865	18319.54	484.52	1021.000
952	545.730	18324.08	479.98	1021.000
953	545.595	18328.63	475.43	1013.000
954	545.459	18333.17	470.89	1043.000
955	545.324	18337.72	466.34	1031.000
956	545.189	18342.27	461.79	1015.000
957	545.053	18346.83	457.24	1004.000
958	544.918	18351.38	452.68	1048.000
959	544.783	18355.94	448.12	1041.000
960	544.648	18360.50	443.56	1022.000
961	544.512	18365.06	439.00	1020.000
962	544.377	18369.63	434.44	1045.000
963	544.242	18374.19	429.87	1045.000
964	544.106	18378.76	425.30	1027.000
965	543.971	18383.33	420.73	1015.000
966	543.836	18387.91	416.16	1024.000
967	543.700	18392.48	411.58	1044.000
968	543.565	18397.06	407.00	1032.000
969	543.430	18401.64	402.42	1027.000
970	543.295	18406.22	397.84	1018.000
971	543.159	18410.81	393.25	1037.000
972	543.024	18415.39	388.67	1017.000
973	542.889	18419.98	384.08	1021.000
974	542.753	18424.58	379.49	1013.000
975	542.618	18429.17	374.89	1040.000
976	542.483	18433.77	370.30	1031.000
977	542.347	18438.36	365.70	1025.000
978	542.212	18442.96	361.10	1017.000
979	542.077	18447.57	356.49	1017.000
980	541.942	18452.17	351.89	1039.000
981	541.806	18456.78	347.28	1034.000
982	541.671	18461.39	342.67	1027.000
983	541.536	18466.00	338.06	1034.000
984	541.400	18470.62	333.44	1050.000
985	541.265	18475.24	328.83	1022.000
986	541.130	18479.85	324.21	1031.000
987	540.995	18484.48	319.59	1030.000
988	540.859	18489.10	314.96	1062.000
989	540.724	18493.73	310.34	1036.000
990	540.589	18498.35	305.71	1037.000
991	540.453	18502.99	301.08	1068.000
992	540.318	18507.62	296.44	1040.000
993	540.183	18512.25	291.81	1041.000
994	540.047	18516.89	287.17	1074.000
995	539.912	18521.53	282.53	1097.000
996	539.777	18526.17	277.89	1068.000
997	539.642	18530.82	273.24	1085.000
998	539.506	18535.47	268.60	1090.000
999	539.371	18540.12	263.95	1116.000
1000	539.236	18544.77	259.29	1131.000
1001	539.100	18549.42	254.64	1123.000
1002	538.965	18554.08	249.98	1126.000
1003	538.830	18558.74	245.32	1149.000
1004	538.694	18563.40	240.66	1166.000
1005	538.559	18568.06	236.00	1134.000
1006	538.424	18572.73	231.33	1139.000
1007	538.289	18577.40	226.67	1139.000
1008	538.153	18582.07	222.00	1167.000
1009	538.018	18586.74	217.32	1161.000
1010	537.883	18591.41	212.65	1146.000
1011	537.747	18596.09	207.97	1145.000
1012	537.612	18600.77	203.29	1154.000
1013	537.477	18605.45	198.61	1146.000
1014	537.342	18610.14	193.92	1113.000
1015	537.206	18614.83	189.24	1111.000
1016	537.071	18619.51	184.55	1117.000
1017	536.936	18624.21	179.86	1128.000
1018	536.800	18628.90	175.16	1109.000
1019	536.665	18633.60	170.46	1058.000
1020	536.530	18638.30	165.77	1020.000
1021	536.394	18643.00	161.06	1001.000
1022	536.259	18647.70	156.36	954.000
1023	536.124	18652.41	151.66	896.000
1024	535.989	18657.11	146.95	854.000
