Instrument:  EduRaman Pro
The Light Source Type:  531.85nm laser/Tungsten lamp
Detector:  ERAM7X-1
Laser Power(%):  100%
Grating(g/mm):  1200
Slit Width:  50μm
Objective:  10x / 0.3NA
Acq. time(ms):  1000
Accumulation:  1
Spectra_type:  0-2000cm⁻¹
TimeSeq:  5
TimeCycle(ms):  100
Temperature:  10.3℃
pixel(2026/05/08 11:02:35)	wavelength(2026/05/08 11:02:35)	wavenumber(2026/05/08 11:02:35)	ramanshift(2026/05/08 11:02:35)	intensity(2026/05/08 11:02:35)
1	535.909	18659.89	142.40	3617.000
2	535.988	18657.12	145.18	3512.000
3	536.068	18654.34	147.95	3421.000
4	536.148	18651.57	150.72	3297.000
5	536.228	18648.80	153.49	3234.000
6	536.307	18646.03	156.26	3124.000
7	536.387	18643.26	159.03	3002.000
8	536.467	18640.49	161.80	2928.000
9	536.546	18637.72	164.57	2909.000
10	536.626	18634.95	167.34	2861.000
11	536.706	18632.19	170.11	2787.000
12	536.785	18629.42	172.87	2823.000
13	536.865	18626.66	175.64	2787.000
14	536.945	18623.89	178.40	2790.000
15	537.024	18621.13	181.17	2828.000
16	537.104	18618.36	183.93	2887.000
17	537.184	18615.60	186.69	2939.000
18	537.264	18612.84	189.45	3012.000
19	537.343	18610.08	192.21	3214.000
20	537.423	18607.32	194.97	3343.000
21	537.503	18604.56	197.73	3513.000
22	537.582	18601.80	200.49	3658.000
23	537.662	18599.05	203.25	3871.000
24	537.742	18596.29	206.01	4047.000
25	537.821	18593.53	208.76	4289.000
26	537.901	18590.78	211.52	4576.000
27	537.981	18588.02	214.27	4934.000
28	538.061	18585.27	217.02	5413.000
29	538.140	18582.52	219.78	5936.000
30	538.220	18579.76	222.53	6616.000
31	538.300	18577.01	225.28	7188.000
32	538.379	18574.26	228.03	7601.000
33	538.459	18571.51	230.78	7781.000
34	538.539	18568.76	233.53	7770.000
35	538.619	18566.02	236.28	7446.000
36	538.698	18563.27	239.03	6900.000
37	538.778	18560.52	241.77	6424.000
38	538.858	18557.78	244.52	5925.000
39	538.937	18555.03	247.26	5437.000
40	539.017	18552.29	250.01	5048.000
41	539.097	18549.54	252.75	4690.000
42	539.177	18546.80	255.49	4502.000
43	539.256	18544.06	258.24	4165.000
44	539.336	18541.32	260.98	3970.000
45	539.416	18538.58	263.72	3835.000
46	539.495	18535.84	266.46	3704.000
47	539.575	18533.10	269.20	3522.000
48	539.655	18530.36	271.93	3407.000
49	539.735	18527.62	274.67	3212.000
50	539.814	18524.89	277.41	2995.000
51	539.894	18522.15	280.14	2849.000
52	539.974	18519.41	282.88	2694.000
53	540.054	18516.68	285.61	2593.000
54	540.133	18513.95	288.35	2534.000
55	540.213	18511.21	291.08	2383.000
56	540.293	18508.48	293.81	2379.000
57	540.373	18505.75	296.54	2307.000
58	540.452	18503.02	299.27	2337.000
59	540.532	18500.29	302.00	2317.000
60	540.612	18497.56	304.73	2304.000
61	540.692	18494.83	307.46	2260.000
62	540.771	18492.11	310.19	2294.000
63	540.851	18489.38	312.91	2312.000
64	540.931	18486.65	315.64	2281.000
65	541.011	18483.93	318.36	2295.000
66	541.090	18481.21	321.09	2329.000
67	541.170	18478.48	323.81	2347.000
68	541.250	18475.76	326.53	2322.000
69	541.330	18473.04	329.26	2316.000
70	541.409	18470.32	331.98	2381.000
71	541.489	18467.60	334.70	2324.000
72	541.569	18464.88	337.42	2329.000
73	541.649	18462.16	340.14	2239.000
74	541.728	18459.44	342.85	2198.000
75	541.808	18456.72	345.57	2139.000
76	541.888	18454.01	348.29	2165.000
77	541.968	18451.29	351.00	2213.000
78	542.047	18448.57	353.72	2164.000
79	542.127	18445.86	356.43	2168.000
80	542.207	18443.15	359.15	2184.000
81	542.287	18440.43	361.86	2165.000
82	542.366	18437.72	364.57	2139.000
83	542.446	18435.01	367.28	2097.000
84	542.526	18432.30	369.99	2046.000
85	542.606	18429.59	372.70	1970.000
86	542.685	18426.88	375.41	1991.000
87	542.765	18424.17	378.12	1991.000
88	542.845	18421.47	380.83	1947.000
89	542.925	18418.76	383.53	1946.000
90	543.004	18416.05	386.24	1955.000
91	543.084	18413.35	388.94	1967.000
92	543.164	18410.64	391.65	2048.000
93	543.244	18407.94	394.35	2138.000
94	543.324	18405.24	397.06	2351.000
95	543.403	18402.54	399.76	2560.000
96	543.483	18399.84	402.46	2915.000
97	543.563	18397.13	405.16	3487.000
98	543.643	18394.43	407.86	4514.000
99	543.722	18391.74	410.56	5709.000
100	543.802	18389.04	413.26	6563.000
101	543.882	18386.34	415.95	6738.000
102	543.962	18383.64	418.65	6677.000
103	544.042	18380.95	421.35	6751.000
104	544.121	18378.25	424.04	6755.000
105	544.201	18375.56	426.74	6217.000
106	544.281	18372.86	429.43	5530.000
107	544.361	18370.17	432.12	5265.000
108	544.441	18367.48	434.81	5847.000
109	544.520	18364.79	437.51	6835.000
110	544.600	18362.10	440.20	7380.000
111	544.680	18359.41	442.89	7083.000
112	544.760	18356.72	445.58	6288.000
113	544.839	18354.03	448.26	5316.000
114	544.919	18351.34	450.95	4519.000
115	544.999	18348.66	453.64	4032.000
116	545.079	18345.97	456.32	3795.000
117	545.159	18343.28	459.01	3785.000
118	545.238	18340.60	461.69	3812.000
119	545.318	18337.92	464.38	3728.000
120	545.398	18335.23	467.06	3541.000
121	545.478	18332.55	469.74	3313.000
122	545.558	18329.87	472.42	3000.000
123	545.637	18327.19	475.11	2811.000
124	545.717	18324.51	477.79	2595.000
125	545.797	18321.83	480.46	2440.000
126	545.877	18319.15	483.14	2424.000
127	545.957	18316.47	485.82	2411.000
128	546.036	18313.80	488.50	2426.000
129	546.116	18311.12	491.17	2328.000
130	546.196	18308.44	493.85	2242.000
131	546.276	18305.77	496.52	2004.000
132	546.356	18303.10	499.20	1924.000
133	546.435	18300.42	501.87	1905.000
134	546.515	18297.75	504.54	1976.000
135	546.595	18295.08	507.22	2113.000
136	546.675	18292.41	509.89	2314.000
137	546.755	18289.74	512.56	2537.000
138	546.835	18287.07	515.23	2563.000
139	546.914	18284.40	517.90	2544.000
140	546.994	18281.73	520.56	2647.000
141	547.074	18279.06	523.23	3026.000
142	547.154	18276.40	525.90	3635.000
143	547.234	18273.73	528.56	4340.000
144	547.313	18271.07	531.23	4869.000
145	547.393	18268.40	533.89	4876.000
146	547.473	18265.74	536.56	4441.000
147	547.553	18263.08	539.22	3690.000
148	547.633	18260.41	541.88	2833.000
149	547.713	18257.75	544.54	2250.000
150	547.792	18255.09	547.20	1946.000
151	547.872	18252.43	549.86	1739.000
152	547.952	18249.77	552.52	1641.000
153	548.032	18247.12	555.18	1666.000
154	548.112	18244.46	557.84	1862.000
155	548.191	18241.80	560.49	1964.000
156	548.271	18239.15	563.15	1911.000
157	548.351	18236.49	565.80	1794.000
158	548.431	18233.84	568.46	1661.000
159	548.511	18231.18	571.11	1647.000
160	548.591	18228.53	573.77	1736.000
161	548.670	18225.88	576.42	1947.000
162	548.750	18223.22	579.07	2019.000
163	548.830	18220.57	581.72	1823.000
164	548.910	18217.92	584.37	1555.000
165	548.990	18215.27	587.02	1410.000
166	549.070	18212.63	589.67	1368.000
167	549.149	18209.98	592.32	1309.000
168	549.229	18207.33	594.96	1309.000
169	549.309	18204.69	597.61	1276.000
170	549.389	18202.04	600.25	1225.000
171	549.469	18199.39	602.90	1215.000
172	549.549	18196.75	605.54	1198.000
173	549.628	18194.11	608.19	1161.000
174	549.708	18191.47	610.83	1182.000
175	549.788	18188.82	613.47	1233.000
176	549.868	18186.18	616.11	1237.000
177	549.948	18183.54	618.75	1216.000
178	550.028	18180.90	621.39	1261.000
179	550.108	18178.26	624.03	1366.000
180	550.187	18175.63	626.67	1481.000
181	550.267	18172.99	629.31	1596.000
182	550.347	18170.35	631.94	1416.000
183	550.427	18167.72	634.58	1335.000
184	550.507	18165.08	637.21	1197.000
185	550.587	18162.45	639.85	1208.000
186	550.666	18159.81	642.48	1182.000
187	550.746	18157.18	645.11	1232.000
188	550.826	18154.55	647.75	1250.000
189	550.906	18151.92	650.38	1256.000
190	550.986	18149.28	653.01	1294.000
191	551.066	18146.65	655.64	1455.000
192	551.146	18144.03	658.27	1609.000
193	551.225	18141.40	660.90	1832.000
194	551.305	18138.77	663.52	1905.000
195	551.385	18136.14	666.15	1704.000
196	551.465	18133.52	668.78	1504.000
197	551.545	18130.89	671.40	1392.000
198	551.625	18128.27	674.03	1302.000
199	551.705	18125.64	676.65	1244.000
200	551.784	18123.02	679.28	1262.000
201	551.864	18120.40	681.90	1232.000
202	551.944	18117.77	684.52	1227.000
203	552.024	18115.15	687.14	1246.000
204	552.104	18112.53	689.76	1287.000
205	552.184	18109.91	692.38	1313.000
206	552.264	18107.29	695.00	1376.000
207	552.344	18104.68	697.62	1509.000
208	552.423	18102.06	700.24	1623.000
209	552.503	18099.44	702.85	1675.000
210	552.583	18096.83	705.47	1592.000
211	552.663	18094.21	708.08	1481.000
212	552.743	18091.60	710.70	1383.000
213	552.823	18088.98	713.31	1329.000
214	552.903	18086.37	715.92	1381.000
215	552.982	18083.76	718.54	1386.000
216	553.062	18081.15	721.15	1493.000
217	553.142	18078.53	723.76	1717.000
218	553.222	18075.92	726.37	2041.000
219	553.302	18073.31	728.98	2116.000
220	553.382	18070.71	731.59	2097.000
221	553.462	18068.10	734.20	2414.000
222	553.542	18065.49	736.80	2385.000
223	553.621	18062.88	739.41	1927.000
224	553.701	18060.28	742.01	1589.000
225	553.781	18057.67	744.62	1524.000
226	553.861	18055.07	747.22	1563.000
227	553.941	18052.47	749.83	1781.000
228	554.021	18049.86	752.43	2080.000
229	554.101	18047.26	755.03	2159.000
230	554.181	18044.66	757.63	2157.000
231	554.260	18042.06	760.23	2525.000
232	554.340	18039.46	762.83	2621.000
233	554.420	18036.86	765.43	2162.000
234	554.500	18034.26	768.03	1744.000
235	554.580	18031.66	770.63	1758.000
236	554.660	18029.07	773.23	1863.000
237	554.740	18026.47	775.82	2119.000
238	554.820	18023.88	778.42	2339.000
239	554.900	18021.28	781.01	2588.000
240	554.979	18018.69	783.61	2798.000
241	555.059	18016.09	786.20	3255.000
242	555.139	18013.50	788.79	3819.000
243	555.219	18010.91	791.38	4457.000
244	555.299	18008.32	793.98	5147.000
245	555.379	18005.73	796.57	6039.000
246	555.459	18003.14	799.16	7239.000
247	555.539	18000.55	801.75	7965.000
248	555.619	17997.96	804.33	7630.000
249	555.698	17995.37	806.92	6557.000
250	555.778	17992.79	809.51	5122.000
251	555.858	17990.20	812.09	3857.000
252	555.938	17987.61	814.68	2898.000
253	556.018	17985.03	817.26	2332.000
254	556.098	17982.45	819.85	2088.000
255	556.178	17979.86	822.43	1942.000
256	556.258	17977.28	825.01	1995.000
257	556.338	17974.70	827.59	2135.000
258	556.417	17972.12	830.18	2170.000
259	556.497	17969.54	832.76	2082.000
260	556.577	17966.96	835.34	2041.000
261	556.657	17964.38	837.91	1962.000
262	556.737	17961.80	840.49	1847.000
263	556.817	17959.22	843.07	1741.000
264	556.897	17956.65	845.65	1737.000
265	556.977	17954.07	848.22	1662.000
266	557.057	17951.50	850.80	1619.000
267	557.137	17948.92	853.37	1582.000
268	557.216	17946.35	855.95	1504.000
269	557.296	17943.77	858.52	1438.000
270	557.376	17941.20	861.09	1375.000
271	557.456	17938.63	863.66	1373.000
272	557.536	17936.06	866.23	1269.000
273	557.616	17933.49	868.80	1300.000
274	557.696	17930.92	871.37	1311.000
275	557.776	17928.35	873.94	1350.000
276	557.856	17925.78	876.51	1322.000
277	557.936	17923.22	879.08	1328.000
278	558.015	17920.65	881.64	1375.000
279	558.095	17918.08	884.21	1377.000
280	558.175	17915.52	886.78	1421.000
281	558.255	17912.95	889.34	1457.000
282	558.335	17910.39	891.90	1562.000
283	558.415	17907.83	894.47	1645.000
284	558.495	17905.27	897.03	1799.000
285	558.575	17902.70	899.59	2057.000
286	558.655	17900.14	902.15	2458.000
287	558.735	17897.58	904.71	2831.000
288	558.815	17895.02	907.27	2917.000
289	558.894	17892.46	909.83	2980.000
290	558.974	17889.91	912.39	3491.000
291	559.054	17887.35	914.94	4933.000
292	559.134	17884.79	917.50	6090.000
293	559.214	17882.24	920.06	5586.000
294	559.294	17879.68	922.61	4034.000
295	559.374	17877.13	925.17	2779.000
296	559.454	17874.57	927.72	2309.000
297	559.534	17872.02	930.27	2248.000
298	559.614	17869.47	932.83	2345.000
299	559.694	17866.92	935.38	2641.000
300	559.774	17864.37	937.93	3160.000
301	559.853	17861.82	940.48	3596.000
302	559.933	17859.27	943.03	3447.000
303	560.013	17856.72	945.58	2860.000
304	560.093	17854.17	948.12	2299.000
305	560.173	17851.62	950.67	1862.000
306	560.253	17849.08	953.22	1683.000
307	560.333	17846.53	955.76	1666.000
308	560.413	17843.99	958.31	1665.000
309	560.493	17841.44	960.85	1698.000
310	560.573	17838.90	963.40	1733.000
311	560.653	17836.35	965.94	1808.000
312	560.733	17833.81	968.48	1862.000
313	560.813	17831.27	971.02	1849.000
314	560.892	17828.73	973.56	1898.000
315	560.972	17826.19	976.10	2009.000
316	561.052	17823.65	978.64	2131.000
317	561.132	17821.11	981.18	2234.000
318	561.212	17818.57	983.72	2455.000
319	561.292	17816.04	986.26	2526.000
320	561.372	17813.50	988.79	2474.000
321	561.452	17810.96	991.33	2316.000
322	561.532	17808.43	993.87	2174.000
323	561.612	17805.89	996.40	2152.000
324	561.692	17803.36	998.93	2304.000
325	561.772	17800.83	1001.47	2441.000
326	561.852	17798.29	1004.00	2259.000
327	561.932	17795.76	1006.53	1787.000
328	562.011	17793.23	1009.06	1520.000
329	562.091	17790.70	1011.59	1434.000
330	562.171	17788.17	1014.12	1401.000
331	562.251	17785.64	1016.65	1381.000
332	562.331	17783.11	1019.18	1384.000
333	562.411	17780.59	1021.71	1365.000
334	562.491	17778.06	1024.23	1330.000
335	562.571	17775.53	1026.76	1345.000
336	562.651	17773.01	1029.28	1393.000
337	562.731	17770.48	1031.81	1406.000
338	562.811	17767.96	1034.33	1370.000
339	562.891	17765.44	1036.86	1356.000
340	562.971	17762.92	1039.38	1349.000
341	563.051	17760.39	1041.90	1357.000
342	563.131	17757.87	1044.42	1333.000
343	563.210	17755.35	1046.94	1306.000
344	563.290	17752.83	1049.46	1358.000
345	563.370	17750.31	1051.98	1325.000
346	563.450	17747.80	1054.50	1332.000
347	563.530	17745.28	1057.02	1348.000
348	563.610	17742.76	1059.53	1373.000
349	563.690	17740.24	1062.05	1387.000
350	563.770	17737.73	1064.56	1365.000
351	563.850	17735.21	1067.08	1407.000
352	563.930	17732.70	1069.59	1391.000
353	564.010	17730.19	1072.11	1409.000
354	564.090	17727.67	1074.62	1411.000
355	564.170	17725.16	1077.13	1434.000
356	564.250	17722.65	1079.64	1385.000
357	564.330	17720.14	1082.15	1421.000
358	564.410	17717.63	1084.66	1442.000
359	564.489	17715.12	1087.17	1449.000
360	564.569	17712.61	1089.68	1430.000
361	564.649	17710.11	1092.19	1478.000
362	564.729	17707.60	1094.70	1473.000
363	564.809	17705.09	1097.20	1479.000
364	564.889	17702.59	1099.71	1441.000
365	564.969	17700.08	1102.21	1483.000
366	565.049	17697.58	1104.72	1476.000
367	565.129	17695.07	1107.22	1514.000
368	565.209	17692.57	1109.72	1567.000
369	565.289	17690.07	1112.22	1607.000
370	565.369	17687.57	1114.73	1641.000
371	565.449	17685.07	1117.23	1699.000
372	565.529	17682.57	1119.73	1806.000
373	565.609	17680.07	1122.23	1783.000
374	565.689	17677.57	1124.73	1799.000
375	565.769	17675.07	1127.22	1863.000
376	565.849	17672.57	1129.72	1873.000
377	565.928	17670.08	1132.22	1888.000
378	566.008	17667.58	1134.71	1996.000
379	566.088	17665.09	1137.21	2076.000
380	566.168	17662.59	1139.70	2156.000
381	566.248	17660.10	1142.20	2190.000
382	566.328	17657.60	1144.69	2307.000
383	566.408	17655.11	1147.18	2409.000
384	566.488	17652.62	1149.67	2494.000
385	566.568	17650.13	1152.16	2743.000
386	566.648	17647.64	1154.65	3090.000
387	566.728	17645.15	1157.14	3544.000
388	566.808	17642.66	1159.63	4092.000
389	566.888	17640.17	1162.12	4698.000
390	566.968	17637.68	1164.61	5531.000
391	567.048	17635.20	1167.10	6806.000
392	567.128	17632.71	1169.58	8350.000
393	567.208	17630.23	1172.07	9612.000
394	567.288	17627.74	1174.55	9978.000
395	567.368	17625.26	1177.04	9577.000
396	567.448	17622.77	1179.52	8763.000
397	567.528	17620.29	1182.00	7929.000
398	567.607	17617.81	1184.48	7180.000
399	567.687	17615.33	1186.97	6492.000
400	567.767	17612.85	1189.45	5744.000
401	567.847	17610.37	1191.93	5048.000
402	567.927	17607.89	1194.41	4393.000
403	568.007	17605.41	1196.88	3867.000
404	568.087	17602.93	1199.36	3465.000
405	568.167	17600.45	1201.84	3193.000
406	568.247	17597.98	1204.32	3138.000
407	568.327	17595.50	1206.79	3281.000
408	568.407	17593.03	1209.27	3493.000
409	568.487	17590.55	1211.74	4084.000
410	568.567	17588.08	1214.21	5500.000
411	568.647	17585.61	1216.69	7887.000
412	568.727	17583.13	1219.16	10228.000
413	568.807	17580.66	1221.63	10484.000
414	568.887	17578.19	1224.10	8390.000
415	568.967	17575.72	1226.57	5893.000
416	569.047	17573.25	1229.04	4254.000
417	569.127	17570.78	1231.51	3295.000
418	569.207	17568.31	1233.98	2768.000
419	569.287	17565.85	1236.45	2369.000
420	569.366	17563.38	1238.91	2148.000
421	569.446	17560.91	1241.38	2019.000
422	569.526	17558.45	1243.85	1934.000
423	569.606	17555.98	1246.31	1890.000
424	569.686	17553.52	1248.77	1863.000
425	569.766	17551.06	1251.24	1834.000
426	569.846	17548.59	1253.70	1800.000
427	569.926	17546.13	1256.16	1807.000
428	570.006	17543.67	1258.62	1829.000
429	570.086	17541.21	1261.08	1872.000
430	570.166	17538.75	1263.54	1873.000
431	570.246	17536.29	1266.00	1978.000
432	570.326	17533.83	1268.46	2078.000
433	570.406	17531.37	1270.92	2205.000
434	570.486	17528.92	1273.38	2387.000
435	570.566	17526.46	1275.83	2620.000
436	570.646	17524.00	1278.29	2917.000
437	570.726	17521.55	1280.75	3297.000
438	570.806	17519.09	1283.20	3812.000
439	570.886	17516.64	1285.65	4685.000
440	570.966	17514.19	1288.11	5734.000
441	571.046	17511.73	1290.56	6873.000
442	571.126	17509.28	1293.01	7767.000
443	571.206	17506.83	1295.46	7949.000
444	571.286	17504.38	1297.91	7255.000
445	571.366	17501.93	1300.36	6219.000
446	571.445	17499.48	1302.81	5210.000
447	571.525	17497.03	1305.26	4250.000
448	571.605	17494.59	1307.71	3537.000
449	571.685	17492.14	1310.15	3178.000
450	571.765	17489.69	1312.60	2976.000
451	571.845	17487.25	1315.05	2836.000
452	571.925	17484.80	1317.49	2827.000
453	572.005	17482.36	1319.94	2836.000
454	572.085	17479.91	1322.38	2857.000
455	572.165	17477.47	1324.82	2935.000
456	572.245	17475.03	1327.26	3035.000
457	572.325	17472.59	1329.71	3298.000
458	572.405	17470.15	1332.15	3722.000
459	572.485	17467.71	1334.59	4510.000
460	572.565	17465.27	1337.03	5370.000
461	572.645	17462.83	1339.47	5657.000
462	572.725	17460.39	1341.90	5475.000
463	572.805	17457.95	1344.34	5101.000
464	572.885	17455.52	1346.78	4926.000
465	572.965	17453.08	1349.21	5129.000
466	573.045	17450.64	1351.65	5609.000
467	573.125	17448.21	1354.08	6232.000
468	573.205	17445.77	1356.52	7225.000
469	573.285	17443.34	1358.95	8699.000
470	573.365	17440.91	1361.39	11068.000
471	573.445	17438.48	1363.82	13981.000
472	573.525	17436.04	1366.25	16153.000
473	573.605	17433.61	1368.68	16532.000
474	573.684	17431.18	1371.11	14839.000
475	573.764	17428.75	1373.54	12243.000
476	573.844	17426.33	1375.97	9934.000
477	573.924	17423.90	1378.40	8491.000
478	574.004	17421.47	1380.82	7742.000
479	574.084	17419.04	1383.25	7541.000
480	574.164	17416.62	1385.68	7683.000
481	574.244	17414.19	1388.10	7957.000
482	574.324	17411.77	1390.53	8599.000
483	574.404	17409.34	1392.95	9697.000
484	574.484	17406.92	1395.37	10794.000
485	574.564	17404.50	1397.80	11099.000
486	574.644	17402.08	1400.22	10351.000
487	574.724	17399.65	1402.64	8834.000
488	574.804	17397.23	1405.06	7248.000
489	574.884	17394.81	1407.48	6093.000
490	574.964	17392.39	1409.90	5385.000
491	575.044	17389.98	1412.32	4973.000
492	575.124	17387.56	1414.74	4548.000
493	575.204	17385.14	1417.15	4216.000
494	575.284	17382.72	1419.57	3779.000
495	575.364	17380.31	1421.99	3351.000
496	575.444	17377.89	1424.40	3164.000
497	575.524	17375.48	1426.82	3005.000
498	575.604	17373.06	1429.23	2981.000
499	575.684	17370.65	1431.64	2939.000
500	575.764	17368.24	1434.06	3077.000
501	575.844	17365.83	1436.47	3256.000
502	575.924	17363.41	1438.88	3428.000
503	576.004	17361.00	1441.29	3562.000
504	576.084	17358.59	1443.70	3673.000
505	576.163	17356.19	1446.11	3813.000
506	576.243	17353.78	1448.52	3804.000
507	576.323	17351.37	1450.93	3758.000
508	576.403	17348.96	1453.33	3743.000
509	576.483	17346.55	1455.74	3640.000
510	576.563	17344.15	1458.15	3663.000
511	576.643	17341.74	1460.55	3692.000
512	576.723	17339.34	1462.95	3802.000
513	576.803	17336.94	1465.36	3991.000
514	576.883	17334.53	1467.76	4202.000
515	576.963	17332.13	1470.16	4511.000
516	577.043	17329.73	1472.57	4754.000
517	577.123	17327.33	1474.97	4955.000
518	577.203	17324.93	1477.37	5150.000
519	577.283	17322.53	1479.77	5310.000
520	577.363	17320.13	1482.17	5508.000
521	577.443	17317.73	1484.57	5975.000
522	577.523	17315.33	1486.96	6721.000
523	577.603	17312.93	1489.36	7255.000
524	577.683	17310.54	1491.76	6940.000
525	577.763	17308.14	1494.15	5964.000
526	577.843	17305.74	1496.55	4907.000
527	577.923	17303.35	1498.94	4109.000
528	578.003	17300.96	1501.34	3558.000
529	578.083	17298.56	1503.73	3276.000
530	578.163	17296.17	1506.12	3128.000
531	578.243	17293.78	1508.52	3039.000
532	578.323	17291.39	1510.91	3071.000
533	578.403	17289.00	1513.30	3039.000
534	578.483	17286.61	1515.69	3016.000
535	578.563	17284.22	1518.08	3070.000
536	578.642	17281.83	1520.47	3070.000
537	578.722	17279.44	1522.85	3001.000
538	578.802	17277.05	1525.24	2901.000
539	578.882	17274.67	1527.63	2865.000
540	578.962	17272.28	1530.01	2832.000
541	579.042	17269.89	1532.40	2756.000
542	579.122	17267.51	1534.78	2720.000
543	579.202	17265.13	1537.17	2667.000
544	579.282	17262.74	1539.55	2663.000
545	579.362	17260.36	1541.93	2645.000
546	579.442	17257.98	1544.32	2619.000
547	579.522	17255.60	1546.70	2652.000
548	579.602	17253.22	1549.08	2608.000
549	579.682	17250.84	1551.46	2576.000
550	579.762	17248.46	1553.84	2630.000
551	579.842	17246.08	1556.22	2636.000
552	579.922	17243.70	1558.59	2654.000
553	580.002	17241.32	1560.97	2734.000
554	580.082	17238.95	1563.35	2837.000
555	580.162	17236.57	1565.72	3053.000
556	580.242	17234.19	1568.10	3297.000
557	580.322	17231.82	1570.47	3623.000
558	580.402	17229.44	1572.85	3900.000
559	580.482	17227.07	1575.22	4201.000
560	580.562	17224.70	1577.60	4627.000
561	580.642	17222.33	1579.97	5262.000
562	580.722	17219.95	1582.34	5960.000
563	580.802	17217.58	1584.71	6765.000
564	580.882	17215.21	1587.08	7719.000
565	580.962	17212.84	1589.45	9153.000
566	581.041	17210.48	1591.82	10527.000
567	581.121	17208.11	1594.19	10913.000
568	581.201	17205.74	1596.55	9750.000
569	581.281	17203.37	1598.92	7944.000
570	581.361	17201.01	1601.29	6857.000
571	581.441	17198.64	1603.65	6740.000
572	581.521	17196.28	1606.02	7280.000
573	581.601	17193.91	1608.38	8504.000
574	581.681	17191.55	1610.75	11075.000
575	581.761	17189.18	1613.11	15470.000
576	581.841	17186.82	1615.47	20986.000
577	581.921	17184.46	1617.83	24989.000
578	582.001	17182.10	1620.19	24019.000
579	582.081	17179.74	1622.55	18430.000
580	582.161	17177.38	1624.91	12513.000
581	582.241	17175.02	1627.27	8843.000
582	582.321	17172.66	1629.63	7048.000
583	582.401	17170.30	1631.99	5983.000
584	582.481	17167.95	1634.35	5146.000
585	582.561	17165.59	1636.70	4390.000
586	582.641	17163.24	1639.06	3824.000
587	582.721	17160.88	1641.41	3326.000
588	582.801	17158.53	1643.77	3070.000
589	582.881	17156.17	1646.12	2886.000
590	582.961	17153.82	1648.48	2692.000
591	583.041	17151.47	1650.83	2553.000
592	583.121	17149.11	1653.18	2519.000
593	583.200	17146.76	1655.53	2460.000
594	583.280	17144.41	1657.88	2383.000
595	583.360	17142.06	1660.23	2310.000
596	583.440	17139.71	1662.58	2182.000
597	583.520	17137.36	1664.93	2102.000
598	583.600	17135.02	1667.28	2061.000
599	583.680	17132.67	1669.63	1974.000
600	583.760	17130.32	1671.97	1973.000
601	583.840	17127.98	1674.32	1930.000
602	583.920	17125.63	1676.66	1870.000
603	584.000	17123.29	1679.01	1803.000
604	584.080	17120.94	1681.35	1816.000
605	584.160	17118.60	1683.70	1734.000
606	584.240	17116.26	1686.04	1721.000
607	584.320	17113.91	1688.38	1709.000
608	584.400	17111.57	1690.72	1712.000
609	584.480	17109.23	1693.06	1635.000
610	584.560	17106.89	1695.40	1652.000
611	584.640	17104.55	1697.74	1659.000
612	584.720	17102.21	1700.08	1617.000
613	584.800	17099.87	1702.42	1598.000
614	584.880	17097.54	1704.76	1607.000
615	584.960	17095.20	1707.10	1594.000
616	585.040	17092.86	1709.43	1588.000
617	585.119	17090.53	1711.77	1557.000
618	585.199	17088.19	1714.10	1566.000
619	585.279	17085.86	1716.44	1570.000
620	585.359	17083.52	1718.77	1559.000
621	585.439	17081.19	1721.10	1537.000
622	585.519	17078.86	1723.44	1523.000
623	585.599	17076.53	1725.77	1506.000
624	585.679	17074.19	1728.10	1463.000
625	585.759	17071.86	1730.43	1446.000
626	585.839	17069.53	1732.76	1482.000
627	585.919	17067.20	1735.09	1436.000
628	585.999	17064.88	1737.42	1419.000
629	586.079	17062.55	1739.75	1445.000
630	586.159	17060.22	1742.07	1450.000
631	586.239	17057.89	1744.40	1420.000
632	586.319	17055.57	1746.73	1463.000
633	586.399	17053.24	1749.05	1441.000
634	586.479	17050.92	1751.38	1419.000
635	586.559	17048.59	1753.70	1427.000
636	586.639	17046.27	1756.02	1438.000
637	586.719	17043.95	1758.35	1473.000
638	586.798	17041.63	1760.67	1486.000
639	586.878	17039.30	1762.99	1530.000
640	586.958	17036.98	1765.31	1590.000
641	587.038	17034.66	1767.63	1608.000
642	587.118	17032.34	1769.95	1675.000
643	587.198	17030.02	1772.27	1706.000
644	587.278	17027.71	1774.59	1740.000
645	587.358	17025.39	1776.91	1686.000
646	587.438	17023.07	1779.22	1635.000
647	587.518	17020.75	1781.54	1626.000
648	587.598	17018.44	1783.86	1570.000
649	587.678	17016.12	1786.17	1540.000
650	587.758	17013.81	1788.49	1555.000
651	587.838	17011.49	1790.80	1580.000
652	587.918	17009.18	1793.11	1565.000
653	587.998	17006.87	1795.43	1575.000
654	588.078	17004.56	1797.74	1646.000
655	588.158	17002.25	1800.05	1636.000
656	588.238	16999.93	1802.36	1629.000
657	588.318	16997.62	1804.67	1628.000
658	588.397	16995.31	1806.98	1633.000
659	588.477	16993.01	1809.29	1590.000
660	588.557	16990.70	1811.60	1568.000
661	588.637	16988.39	1813.90	1586.000
662	588.717	16986.08	1816.21	1569.000
663	588.797	16983.78	1818.52	1550.000
664	588.877	16981.47	1820.82	1555.000
665	588.957	16979.17	1823.13	1598.000
666	589.037	16976.86	1825.43	1551.000
667	589.117	16974.56	1827.74	1601.000
668	589.197	16972.26	1830.04	1547.000
669	589.277	16969.95	1832.34	1558.000
670	589.357	16967.65	1834.64	1557.000
671	589.437	16965.35	1836.94	1557.000
672	589.517	16963.05	1839.24	1545.000
673	589.597	16960.75	1841.54	1580.000
674	589.677	16958.45	1843.84	1528.000
675	589.756	16956.15	1846.14	1556.000
676	589.836	16953.85	1848.44	1518.000
677	589.916	16951.56	1850.74	1485.000
678	589.996	16949.26	1853.03	1503.000
679	590.076	16946.96	1855.33	1478.000
680	590.156	16944.67	1857.63	1484.000
681	590.236	16942.37	1859.92	1446.000
682	590.316	16940.08	1862.22	1463.000
683	590.396	16937.79	1864.51	1477.000
684	590.476	16935.49	1866.80	1446.000
685	590.556	16933.20	1869.09	1455.000
686	590.636	16930.91	1871.39	1454.000
687	590.716	16928.62	1873.68	1399.000
688	590.796	16926.33	1875.97	1402.000
689	590.876	16924.04	1878.26	1410.000
690	590.956	16921.75	1880.55	1410.000
691	591.035	16919.46	1882.83	1382.000
692	591.115	16917.17	1885.12	1410.000
693	591.195	16914.88	1887.41	1442.000
694	591.275	16912.60	1889.70	1392.000
695	591.355	16910.31	1891.98	1466.000
696	591.435	16908.03	1894.27	1429.000
697	591.515	16905.74	1896.55	1414.000
698	591.595	16903.46	1898.84	1457.000
699	591.675	16901.17	1901.12	1429.000
700	591.755	16898.89	1903.40	1397.000
701	591.835	16896.61	1905.69	1424.000
702	591.915	16894.33	1907.97	1444.000
703	591.995	16892.05	1910.25	1469.000
704	592.075	16889.77	1912.53	1389.000
705	592.154	16887.49	1914.81	1412.000
706	592.234	16885.21	1917.09	1498.000
707	592.314	16882.93	1919.37	1448.000
708	592.394	16880.65	1921.64	1406.000
709	592.474	16878.37	1923.92	1422.000
710	592.554	16876.10	1926.20	1386.000
711	592.634	16873.82	1928.47	1422.000
712	592.714	16871.55	1930.75	1392.000
713	592.794	16869.27	1933.02	1430.000
714	592.874	16867.00	1935.30	1398.000
715	592.954	16864.72	1937.57	1371.000
716	593.034	16862.45	1939.84	1348.000
717	593.114	16860.18	1942.12	1411.000
718	593.193	16857.91	1944.39	1354.000
719	593.273	16855.64	1946.66	1356.000
720	593.353	16853.37	1948.93	1373.000
721	593.433	16851.10	1951.20	1382.000
722	593.513	16848.83	1953.47	1331.000
723	593.593	16846.56	1955.74	1350.000
724	593.673	16844.29	1958.00	1372.000
725	593.753	16842.02	1960.27	1357.000
726	593.833	16839.76	1962.54	1360.000
727	593.913	16837.49	1964.80	1410.000
728	593.993	16835.22	1967.07	1410.000
729	594.073	16832.96	1969.33	1404.000
730	594.152	16830.70	1971.60	1418.000
731	594.232	16828.43	1973.86	1457.000
732	594.312	16826.17	1976.12	1476.000
733	594.392	16823.91	1978.39	1474.000
734	594.472	16821.65	1980.65	1482.000
735	594.552	16819.38	1982.91	1496.000
736	594.632	16817.12	1985.17	1433.000
737	594.712	16814.86	1987.43	1389.000
738	594.792	16812.61	1989.69	1406.000
739	594.872	16810.35	1991.95	1409.000
740	594.952	16808.09	1994.20	1371.000
741	595.032	16805.83	1996.46	1394.000
742	595.111	16803.58	1998.72	1435.000
743	595.191	16801.32	2000.97	1429.000
744	595.271	16799.06	2003.23	1441.000
745	595.351	16796.81	2005.48	1474.000
746	595.431	16794.55	2007.74	1518.000
747	595.511	16792.30	2009.99	1487.000
748	595.591	16790.05	2012.25	1432.000
749	595.671	16787.80	2014.50	1435.000
750	595.751	16785.54	2016.75	1403.000
751	595.831	16783.29	2019.00	1381.000
752	595.911	16781.04	2021.25	1354.000
753	595.990	16778.79	2023.50	1351.000
754	596.070	16776.54	2025.75	1356.000
755	596.150	16774.30	2028.00	1359.000
756	596.230	16772.05	2030.25	1357.000
757	596.310	16769.80	2032.49	1322.000
758	596.390	16767.55	2034.74	1341.000
759	596.470	16765.31	2036.99	1340.000
760	596.550	16763.06	2039.23	1328.000
761	596.630	16760.82	2041.48	1287.000
762	596.710	16758.57	2043.72	1273.000
763	596.789	16756.33	2045.97	1301.000
764	596.869	16754.09	2048.21	1305.000
765	596.949	16751.84	2050.45	1313.000
766	597.029	16749.60	2052.69	1308.000
767	597.109	16747.36	2054.93	1332.000
768	597.189	16745.12	2057.17	1336.000
769	597.269	16742.88	2059.41	1294.000
770	597.349	16740.64	2061.65	1339.000
771	597.429	16738.40	2063.89	1318.000
772	597.509	16736.16	2066.13	1339.000
773	597.588	16733.93	2068.37	1318.000
774	597.668	16731.69	2070.60	1367.000
775	597.748	16729.45	2072.84	1379.000
776	597.828	16727.22	2075.08	1359.000
777	597.908	16724.98	2077.31	1380.000
778	597.988	16722.75	2079.55	1385.000
779	598.068	16720.51	2081.78	1371.000
780	598.148	16718.28	2084.01	1386.000
781	598.228	16716.05	2086.25	1403.000
782	598.307	16713.82	2088.48	1370.000
783	598.387	16711.58	2090.71	1348.000
784	598.467	16709.35	2092.94	1378.000
785	598.547	16707.12	2095.17	1365.000
786	598.627	16704.89	2097.40	1346.000
787	598.707	16702.67	2099.63	1294.000
788	598.787	16700.44	2101.86	1341.000
789	598.867	16698.21	2104.08	1302.000
790	598.946	16695.98	2106.31	1305.000
791	599.026	16693.76	2108.54	1300.000
792	599.106	16691.53	2110.76	1276.000
793	599.186	16689.30	2112.99	1267.000
794	599.266	16687.08	2115.21	1298.000
795	599.346	16684.86	2117.44	1297.000
796	599.426	16682.63	2119.66	1294.000
797	599.506	16680.41	2121.88	1264.000
798	599.586	16678.19	2124.11	1351.000
799	599.665	16675.97	2126.33	1341.000
800	599.745	16673.74	2128.55	1342.000
801	599.825	16671.52	2130.77	1338.000
802	599.905	16669.30	2132.99	1371.000
803	599.985	16667.09	2135.21	1377.000
804	600.065	16664.87	2137.43	1425.000
805	600.145	16662.65	2139.64	1459.000
806	600.225	16660.43	2141.86	1436.000
807	600.304	16658.21	2144.08	1453.000
808	600.384	16656.00	2146.30	1439.000
809	600.464	16653.78	2148.51	1429.000
810	600.544	16651.57	2150.73	1456.000
811	600.624	16649.35	2152.94	1372.000
812	600.704	16647.14	2155.15	1401.000
813	600.784	16644.93	2157.37	1428.000
814	600.864	16642.71	2159.58	1320.000
815	600.943	16640.50	2161.79	1351.000
816	601.023	16638.29	2164.00	1385.000
817	601.103	16636.08	2166.21	1349.000
818	601.183	16633.87	2168.42	1413.000
819	601.263	16631.66	2170.63	1362.000
820	601.343	16629.45	2172.84	1410.000
821	601.423	16627.24	2175.05	1401.000
822	601.502	16625.04	2177.26	1411.000
823	601.582	16622.83	2179.46	1395.000
824	601.662	16620.62	2181.67	1438.000
825	601.742	16618.42	2183.88	1370.000
826	601.822	16616.21	2186.08	1409.000
827	601.902	16614.01	2188.29	1394.000
828	601.982	16611.80	2190.49	1356.000
829	602.061	16609.60	2192.69	1376.000
830	602.141	16607.40	2194.90	1295.000
831	602.221	16605.20	2197.10	1330.000
832	602.301	16602.99	2199.30	1244.000
833	602.381	16600.79	2201.50	1231.000
834	602.461	16598.59	2203.70	1260.000
835	602.541	16596.39	2205.90	1252.000
836	602.620	16594.19	2208.10	1244.000
837	602.700	16591.99	2210.30	1192.000
838	602.780	16589.80	2212.50	1212.000
839	602.860	16587.60	2214.69	1151.000
840	602.940	16585.40	2216.89	1166.000
841	603.020	16583.21	2219.09	1185.000
842	603.100	16581.01	2221.28	1177.000
843	603.179	16578.82	2223.48	1173.000
844	603.259	16576.62	2225.67	1124.000
845	603.339	16574.43	2227.87	1180.000
846	603.419	16572.23	2230.06	1188.000
847	603.499	16570.04	2232.25	1161.000
848	603.579	16567.85	2234.44	1167.000
849	603.658	16565.66	2236.64	1185.000
850	603.738	16563.47	2238.83	1174.000
851	603.818	16561.28	2241.02	1141.000
852	603.898	16559.09	2243.21	1219.000
853	603.978	16556.90	2245.39	1183.000
854	604.058	16554.71	2247.58	1190.000
855	604.138	16552.52	2249.77	1169.000
856	604.217	16550.34	2251.96	1193.000
857	604.297	16548.15	2254.14	1172.000
858	604.377	16545.96	2256.33	1168.000
859	604.457	16543.78	2258.52	1202.000
860	604.537	16541.59	2260.70	1220.000
861	604.617	16539.41	2262.88	1150.000
862	604.696	16537.23	2265.07	1222.000
863	604.776	16535.04	2267.25	1233.000
864	604.856	16532.86	2269.43	1239.000
865	604.936	16530.68	2271.62	1230.000
866	605.016	16528.50	2273.80	1270.000
867	605.096	16526.32	2275.98	1281.000
868	605.175	16524.14	2278.16	1268.000
869	605.255	16521.96	2280.34	1294.000
870	605.335	16519.78	2282.52	1284.000
871	605.415	16517.60	2284.69	1266.000
872	605.495	16515.42	2286.87	1289.000
873	605.574	16513.25	2289.05	1269.000
874	605.654	16511.07	2291.22	1295.000
875	605.734	16508.89	2293.40	1251.000
876	605.814	16506.72	2295.58	1265.000
877	605.894	16504.54	2297.75	1308.000
878	605.974	16502.37	2299.92	1287.000
879	606.053	16500.20	2302.10	1289.000
880	606.133	16498.02	2304.27	1310.000
881	606.213	16495.85	2306.44	1312.000
882	606.293	16493.68	2308.61	1331.000
883	606.373	16491.51	2310.79	1279.000
884	606.452	16489.34	2312.96	1302.000
885	606.532	16487.17	2315.13	1305.000
886	606.612	16485.00	2317.30	1254.000
887	606.692	16482.83	2319.46	1290.000
888	606.772	16480.66	2321.63	1339.000
889	606.852	16478.49	2323.80	1279.000
890	606.931	16476.33	2325.97	1276.000
891	607.011	16474.16	2328.13	1316.000
892	607.091	16472.00	2330.30	1310.000
893	607.171	16469.83	2332.46	1342.000
894	607.251	16467.67	2334.63	1324.000
895	607.330	16465.50	2336.79	1358.000
896	607.410	16463.34	2338.96	1324.000
897	607.490	16461.18	2341.12	1325.000
898	607.570	16459.01	2343.28	1399.000
899	607.650	16456.85	2345.44	1406.000
900	607.729	16454.69	2347.60	1336.000
901	607.809	16452.53	2349.76	1351.000
902	607.889	16450.37	2351.92	1383.000
903	607.969	16448.21	2354.08	1373.000
904	608.049	16446.05	2356.24	1340.000
905	608.128	16443.89	2358.40	1359.000
906	608.208	16441.74	2360.56	1375.000
907	608.288	16439.58	2362.71	1359.000
908	608.368	16437.42	2364.87	1338.000
909	608.448	16435.27	2367.03	1379.000
910	608.527	16433.11	2369.18	1406.000
911	608.607	16430.96	2371.34	1426.000
912	608.687	16428.80	2373.49	1414.000
913	608.767	16426.65	2375.64	1401.000
914	608.847	16424.50	2377.80	1387.000
915	608.926	16422.35	2379.95	1402.000
916	609.006	16420.19	2382.10	1428.000
917	609.086	16418.04	2384.25	1438.000
918	609.166	16415.89	2386.40	1403.000
919	609.246	16413.74	2388.55	1404.000
920	609.325	16411.59	2390.70	1468.000
921	609.405	16409.45	2392.85	1426.000
922	609.485	16407.30	2395.00	1401.000
923	609.565	16405.15	2397.14	1409.000
924	609.644	16403.00	2399.29	1448.000
925	609.724	16400.86	2401.44	1383.000
926	609.804	16398.71	2403.58	1459.000
927	609.884	16396.57	2405.73	1480.000
928	609.964	16394.42	2407.87	1438.000
929	610.043	16392.28	2410.02	1431.000
930	610.123	16390.13	2412.16	1421.000
931	610.203	16387.99	2414.30	1419.000
932	610.283	16385.85	2416.44	1398.000
933	610.362	16383.71	2418.59	1344.000
934	610.442	16381.57	2420.73	1392.000
935	610.522	16379.43	2422.87	1355.000
936	610.602	16377.29	2425.01	1314.000
937	610.682	16375.15	2427.15	1316.000
938	610.761	16373.01	2429.29	1311.000
939	610.841	16370.87	2431.42	1296.000
940	610.921	16368.73	2433.56	1276.000
941	611.001	16366.60	2435.70	1294.000
942	611.080	16364.46	2437.83	1307.000
943	611.160	16362.32	2439.97	1267.000
944	611.240	16360.19	2442.11	1312.000
945	611.320	16358.05	2444.24	1306.000
946	611.399	16355.92	2446.37	1318.000
947	611.479	16353.79	2448.51	1300.000
948	611.559	16351.65	2450.64	1310.000
949	611.639	16349.52	2452.77	1307.000
950	611.718	16347.39	2454.90	1294.000
951	611.798	16345.26	2457.04	1306.000
952	611.878	16343.13	2459.17	1325.000
953	611.958	16341.00	2461.30	1335.000
954	612.037	16338.87	2463.43	1315.000
955	612.117	16336.74	2465.55	1320.000
956	612.197	16334.61	2467.68	1339.000
957	612.277	16332.48	2469.81	1330.000
958	612.356	16330.36	2471.94	1299.000
959	612.436	16328.23	2474.06	1372.000
960	612.516	16326.10	2476.19	1318.000
961	612.596	16323.98	2478.31	1332.000
962	612.675	16321.85	2480.44	1317.000
963	612.755	16319.73	2482.56	1323.000
964	612.835	16317.61	2484.69	1340.000
965	612.915	16315.48	2486.81	1376.000
966	612.994	16313.36	2488.93	1351.000
967	613.074	16311.24	2491.05	1346.000
968	613.154	16309.12	2493.18	1346.000
969	613.234	16307.00	2495.30	1359.000
970	613.313	16304.88	2497.42	1454.000
971	613.393	16302.76	2499.54	1484.000
972	613.473	16300.64	2501.65	1505.000
973	613.553	16298.52	2503.77	1539.000
974	613.632	16296.40	2505.89	1592.000
975	613.712	16294.29	2508.01	1549.000
976	613.792	16292.17	2510.12	1557.000
977	613.872	16290.05	2512.24	1588.000
978	613.951	16287.94	2514.36	1557.000
979	614.031	16285.82	2516.47	1604.000
980	614.111	16283.71	2518.59	1619.000
981	614.190	16281.59	2520.70	1673.000
982	614.270	16279.48	2522.81	1708.000
983	614.350	16277.37	2524.92	1752.000
984	614.430	16275.26	2527.04	1760.000
985	614.509	16273.15	2529.15	1776.000
986	614.589	16271.03	2531.26	1715.000
987	614.669	16268.92	2533.37	1738.000
988	614.749	16266.81	2535.48	1715.000
989	614.828	16264.71	2537.59	1728.000
990	614.908	16262.60	2539.70	1664.000
991	614.988	16260.49	2541.80	1663.000
992	615.067	16258.38	2543.91	1720.000
993	615.147	16256.27	2546.02	1656.000
994	615.227	16254.17	2548.13	1673.000
995	615.307	16252.06	2550.23	1676.000
996	615.386	16249.96	2552.34	1657.000
997	615.466	16247.85	2554.44	1633.000
998	615.546	16245.75	2556.54	1608.000
999	615.625	16243.65	2558.65	1641.000
1000	615.705	16241.54	2560.75	1606.000
1001	615.785	16239.44	2562.85	1600.000
1002	615.864	16237.34	2564.96	1653.000
1003	615.944	16235.24	2567.06	1636.000
1004	616.024	16233.14	2569.16	1616.000
1005	616.104	16231.04	2571.26	1583.000
1006	616.183	16228.94	2573.36	1609.000
1007	616.263	16226.84	2575.45	1603.000
1008	616.343	16224.74	2577.55	1555.000
1009	616.422	16222.64	2579.65	1601.000
1010	616.502	16220.55	2581.75	1589.000
1011	616.582	16218.45	2583.84	1534.000
1012	616.661	16216.35	2585.94	1516.000
1013	616.741	16214.26	2588.04	1553.000
1014	616.821	16212.16	2590.13	1498.000
1015	616.901	16210.07	2592.23	1458.000
1016	616.980	16207.98	2594.32	1542.000
1017	617.060	16205.88	2596.41	1496.000
1018	617.140	16203.79	2598.50	1507.000
1019	617.219	16201.70	2600.60	1457.000
1020	617.299	16199.61	2602.69	1503.000
1021	617.379	16197.52	2604.78	1468.000
1022	617.458	16195.42	2606.87	1501.000
1023	617.538	16193.34	2608.96	1476.000
1024	617.618	16191.25	2611.05	1500.000
